1466530772.00
64.000000
-0.00
-0.00
-0.00
-0.00
-0.00
-0.00
-0.00
-0.00
-0.00
-0.00
0.00
0.01
0.01
-0.00
-0.03
-0.05
-0.05
0.00
0.13
0.36
0.66
1.01
1.37
1.72
2.06
2.40
2.79
3.24
3.80
4.42
5.06
5.66
6.20
6.68
7.15
7.68
8.31
9.14
10.09
11.04
11.88
12.56
13.14
13.76
14.65
15.96
17.91
20.32
22.90
25.38
27.58
29.57
31.68
34.32
37.81
42.54
48.15
54.10
59.83
64.97
69.58
74.14
79.34
85.71
93.76
103.00
112.62
121.73
129.77
136.75
143.30
150.75
157.77
166.64
177.95
191.79
206.97
220.57
228.25
225.36
208.53
176.87
132.76
80.05
23.07
-34.94
-92.44
-149.16
-205.23
-260.37
-313.74
-363.87
-409.83
-450.91
-486.50
-515.74
-537.23
-549.22
-549.96
-538.37
-514.21
-478.67
-433.88
-382.45
-327.02
-269.84
-212.63
-156.66
-102.95
-52.37
-5.90
35.58
71.43
101.35
125.50
144.38
158.69
169.15
176.37
180.75
182.57
182.07
179.51
175.23
169.65
163.18
156.15
148.81
141.30
133.69
126.02
118.33
110.69
103.16
95.80
88.68
81.83
75.25
68.95
62.95
57.25
51.86
46.78
42.03
37.59
33.45
29.61
26.07
22.81
19.83
17.11
14.67
12.48
10.54
8.83
7.35
6.07
4.97
4.05
3.27
2.62
2.09
1.65
1.30
1.01
0.79
0.61
0.47
0.37
0.29
0.23
0.19
0.16
0.15
0.14
0.15
0.17
0.19
0.22
0.25
0.29
0.33
0.37
0.41
0.45
0.48
0.51
0.54
0.56
0.59
0.61
0.63
0.66
0.68
0.72
0.77
0.82
0.89
0.98
1.08
1.19
1.33
1.48
1.66
1.86
2.08
2.32
2.59
2.88
3.19
3.53
3.88
4.26
4.65
5.07
5.51
5.97
6.46
6.95
7.44
7.94
8.42
8.90
9.39
9.92
10.47
11.07
11.66
12.24
12.75
13.14
13.32
13.19
12.63
11.51
9.71
7.09
3.62
-0.68
-5.74
-11.36
-17.23
-23.04
-28.41
-33.04
-36.70
-39.15
-40.22
-39.80
-37.81
-34.26
-29.22
-22.94
-15.48
-7.66
-0.03
6.98
13.06
18.15
22.31
25.65
28.22
29.92
30.51
29.83
27.78
24.50
20.31
15.68
10.98
6.43
2.02
-2.41
-6.94
-11.59
-16.39
-21.36
-26.65
-32.16
-37.52
-41.85
-44.09
-43.32
-39.31
-32.45
-23.52
-13.29
-2.22
9.22
20.52
30.38
37.35
39.98
37.43
29.79
18.06
3.98
-10.64
-24.11
-35.17
-43.02
-47.55
-49.01
-47.88
-44.83
-39.59
-32.07
-22.33
-11.02
0.71
11.36
19.68
25.06
27.67
28.39
28.01
27.06
25.63
23.63
21.08
18.39
16.28
15.44
16.28
18.61
21.87
25.33
28.24
29.99
30.17
28.56
25.29
20.76
15.54
10.17
4.98
-0.02
-4.98
-9.92
-14.61
-18.75
-22.11
-24.81
-27.09
-29.21
-31.03
-31.96
-30.96
-27.28
-21.01
-13.30
-6.09
-1.23
0.30
-1.16
-3.94
-5.41
-3.00
4.98
18.97
38.03
60.01
82.01
101.20
113.46
116.44
110.18
97.20
81.46
66.93
56.06
49.21
44.99
41.24
36.45
30.06
22.33
13.75
4.59
-5.26
-16.11
-28.18
-41.57
-55.84
-70.26
-83.80
-95.32
-103.73
-108.28
-108.91
-106.25
-101.62
-96.34
-91.52
-87.71
-85.08
-83.56
-83.16
-84.09
-86.52
-90.28
-94.53
-97.87
-98.74
-95.90
-88.87
-77.94
-63.96
-47.88
-30.46
-12.15
6.70
25.58
43.72
60.14
73.99
84.72
92.24
96.74
98.42
97.36
93.43
86.53
76.81
64.88
51.94
39.70
30.13
24.96
25.14
30.34
38.83
47.94
54.98
58.16
57.17
53.02
47.27
41.12
34.89
28.14
20.29
11.25
1.62
-7.60
-15.57
-22.00
-27.16
-31.64
-36.05
-40.72
-45.71
-50.77
-55.37
-58.71
-59.98
-58.76
-55.21
-50.17
-44.82
-40.17
-36.53
-33.27
-29.22
-23.20
-14.64
-3.93
7.79
19.06
28.71
36.08
41.02
43.55
43.70
41.45
36.93
30.60
23.30
15.96
9.35
3.85
-0.62
-4.43
-8.02
-11.89
-16.57
-22.53
-29.95
-38.58
-47.64
-55.98
-62.42
-66.17
-67.07
-65.54
-62.44
-58.71
-55.13
-52.08
-49.51
-47.02
-44.16
-40.60
-36.21
-30.87
-24.29
-15.94
-5.16
8.42
24.61
42.47
60.41
76.75
90.09
99.55
105.02
106.98
106.27
103.69
99.86
95.11
89.82
84.38
79.17
74.31
69.56
64.30
57.79
49.54
39.55
28.67
18.02
8.56
0.63
-5.91
-11.47
-16.38
-20.83
-24.88
-27.97
-29.81
-30.81
-32.07
-34.74
-39.20
-44.82
-50.20
-53.71
-52.93
-46.54
-35.21
-21.56
-8.64
1.37
7.78
11.07
12.13
13.72
18.01
25.15
33.09
39.28
42.11
41.57
38.82
35.63
36.53
46.01
66.48
97.37
135.99
178.24
219.24
253.69
261.93
231.75
167.07
87.37
13.63
-42.65
-80.10
-101.54
-109.87
-107.29
-93.80
-71.40
-45.83
-25.33
-14.59
-15.51
-25.24
-38.05
-48.66
-52.13
-46.43
-32.95
-16.87
-2.52
6.85
9.20
3.13
-12.78
-37.30
-66.60
-94.99
-116.65
-127.15
-125.59
-116.28
-103.23
-90.87
-81.41
-74.52
-68.34
-61.19
-52.50
-43.16
-34.59
-27.64
-22.60
-18.86
-15.46
-11.98
-8.94
-7.27
-7.80
-10.16
-12.93
-14.46
-13.15
-8.14
0.34
11.13
22.54
32.93
41.21
47.06
50.54
52.07
52.16
51.24
49.56
47.23
44.33
40.88
36.80
31.87
25.85
18.67
10.39
1.19
-8.72
-18.88
-28.93
-38.71
-48.18
-57.06
-64.59
-69.66
-71.19
-68.62
-61.88
-52.02
-41.32
-32.60
-28.03
-28.03
-31.34
-35.59
-38.15
-36.27
-28.61
-15.98
-1.00
13.10
24.05
30.82
33.56
33.44
33.41
36.71
45.50
60.03
78.58
98.36
115.53
126.47
123.50
104.66
77.17
53.95
44.48
49.35
62.95
77.54
87.23
89.53
85.92
79.36
72.04
66.47
61.97
59.04
58.59
60.70
63.90
66.39
66.33
62.27
53.84
42.05
29.70
19.49
14.32
15.11
20.78
28.28
33.40
32.23
22.55
4.86
-18.24
-43.20
-66.64
-85.76
-98.83
-105.58
-107.24
-106.08
-104.38
-103.84
-105.10
-107.71
-110.42
-111.83
-111.09
-108.11
-103.38
-97.48
-90.84
-83.75
-76.59
-69.77
-63.73
-58.90
-55.56
-53.76
-53.31
-53.68
-53.99
-53.11
-49.86
-43.38
-33.50
-21.01
-7.45
5.32
15.89
23.62
28.74
32.00
34.13
35.45
35.88
35.15
33.15
30.22
27.00
24.24
22.41
21.54
21.21
20.84
19.89
18.15
15.62
12.42
8.71
4.50
-0.22
-5.45
-11.10
-17.03
-23.15
-29.49
-36.13
-43.13
-50.40
-57.50
-63.74
-68.24
-70.15
-68.91
-64.40
-57.05
-47.76
-37.65
-27.81
-18.98
-11.48
-5.24
-0.06
4.26
7.75
10.40
12.13
12.96
12.89
11.98
10.36
8.22
5.85
3.55
1.58
0.11
-0.76
-0.97
-0.40
1.08
3.55
6.88
10.68
14.38
17.30
18.91
18.77
16.70
12.75
7.38
1.46
-3.78
-7.09
-7.55
-4.93
0.34
7.36
15.17
22.95
30.19
36.49
41.53
44.99
46.67
46.67
45.44
43.58
41.66
39.90
38.20
36.26
33.80
30.73
27.16
23.30
19.35
15.45
11.64
7.93
4.28
0.67
-2.91
-6.50
-10.11
-13.79
-17.58
-21.51
-25.65
-29.93
-34.12
-37.70
-39.89
-39.94
-37.25
-31.77
-24.01
-15.00
-5.95
2.11
8.63
13.57
17.27
20.06
22.07
23.18
23.15
21.91
19.76
17.24
15.02
13.48
12.62
12.09
11.37
10.12
8.38
6.45
4.77
3.64
2.98
2.38
1.28
-0.72
-3.68
-7.35
-11.31
-15.28
-19.16
-22.93
-26.41
-29.05
-30.04
-28.61
-24.46
-17.99
-10.22
-2.43
4.34
9.62
13.49
16.35
18.56
20.21
21.10
20.97
19.69
17.44
14.64
11.77
9.18
6.99
5.09
3.29
1.49
-0.28
-1.83
-2.93
-3.42
-3.30
-2.76
-2.06
-1.44
-0.96
-0.54
0.01
0.87
2.11
3.79
6.01
9.11
13.71
20.45
29.76
41.55
55.01
68.64
80.53
88.71
91.59
88.26
78.82
64.39
46.99
29.08
13.07
0.74
-7.05
-10.29
-9.69
-6.32
-1.47
3.48
7.22
8.69
7.47
3.91
-0.92
-5.60
-8.93
-10.34
-10.07
-8.97
-8.14
-8.62
-11.07
-15.67
-22.04
-29.29
-36.15
-41.23
-43.34
-41.85
-36.77
-28.77
-18.91
-8.38
1.72
10.59
17.62
22.44
24.77
24.47
21.53
16.26
9.28
1.49
-6.13
-12.85
-18.34
-22.71
-26.33
-29.59
-32.71
-35.72
-38.60
-41.33
-43.96
-46.52
-48.97
-51.13
-52.74
-53.57
-53.40
-51.99
-49.01
-44.12
-37.07
-27.98
-17.45
-6.42
4.13
13.58
21.84
29.26
36.33
43.31
49.95
55.60
59.47
60.99
60.11
57.30
53.34
48.96
44.64
40.44
36.17
31.63
26.73
21.61
16.46
11.44
6.55
1.67
-3.32
-8.51
-13.86
-19.36
-25.05
-31.12
-37.72
-44.80
-51.90
-58.06
-62.08
-62.89
-60.00
-53.70
-44.96
-34.99
-24.86
-15.20
-6.24
1.94
9.18
15.13
19.45
21.93
22.74
22.33
21.28
20.04
18.84
17.67
16.26
14.39
11.84
8.69
5.18
1.71
-1.30
-3.69
-5.59
-7.40
-9.58
-12.49
-16.18
-20.46
-24.91
-29.03
-32.26
-34.00
-33.65
-30.78
-25.29
-17.58
-8.52
0.74
9.10
15.78
20.47
23.29
24.68
25.17
25.32
25.57
26.16
27.09
28.12
28.92
29.11
28.50
27.06
24.92
22.23
19.14
15.74
12.13
8.49
4.92
1.46
-2.07
-5.96
-10.51
-15.83
-21.71
-27.62
-32.81
-36.48
-37.97
-36.79
-32.77
-26.09
-17.31
-7.27
3.02
12.74
21.33
28.57
34.46
39.01
42.16
43.85
44.03
42.85
40.55
37.40
33.65
29.54
25.33
21.27
17.51
14.03
10.62
6.93
2.72
-1.99
-6.96
-11.92
-16.71
-21.48
-26.58
-32.37
-38.96
-46.03
-52.91
-58.60
-62.06
-62.37
-59.03
-52.05
-42.02
-30.01
-17.31
-5.12
5.74
14.88
22.25
27.90
31.88
34.18
34.91
34.33
32.94
31.26
29.67
28.28
27.02
25.71
24.29
22.83
21.47
20.27
19.21
18.16
17.07
15.89
14.60
13.05
10.91
7.75
3.10
-3.28
-11.26
-20.21
-29.06
-36.49
-41.26
-42.60
-40.47
-35.61
-29.25
-22.72
-17.04
-12.77
-10.03
-8.77
-8.82
-10.03
-12.13
-14.69
-17.16
-18.90
-19.42
-18.41
-15.85
-11.96
-7.19
-2.03
3.10
7.95
12.42
16.49
20.06
22.94
24.85
25.66
25.45
24.48
23.10
21.44
19.39
16.60
12.76
7.86
2.38
-2.81
-6.71
-8.52
-7.85
-4.86
-0.16
5.41
11.00
15.95
19.84
22.51
23.94
24.20
23.31
21.31
18.30
14.51
10.30
6.17
2.61
-0.11
-1.90
-2.95
-3.59
-4.17
-4.93
-5.97
-7.28
-8.84
-10.65
-12.76
-15.18
-17.84
-20.60
-23.33
-25.97
-28.60
-31.42
-34.51
-37.70
-40.47
-42.05
-41.63
-38.67
-33.13
-25.46
-16.51
-7.32
1.09
7.92
12.76
15.55
16.46
15.74
13.67
10.41
6.22
1.48
-3.29
-7.55
-10.91
-13.30
-15.05
-16.66
-18.61
-21.18
-24.27
-27.47
-30.18
-31.73
-31.49
-29.01
-24.13
-17.04
-8.26
1.40
10.97
19.50
26.31
31.28
34.91
38.17
42.10
47.45
54.22
61.77
69.04
74.96
78.82
80.33
79.55
76.71
72.11
66.06
58.90
51.05
42.83
34.58
26.59
19.13
12.41
6.52
1.38
-3.22
-7.55
-11.75
-15.83
-19.67
-23.10
-26.07
-28.60
-30.90
-33.22
-35.91
-39.25
-43.43
-48.52
-54.30
-60.34
-65.99
-70.52
-73.23
-73.73
-71.95
-68.22
-63.22
-57.71
-52.35
-47.46
-43.06
-38.95
-35.00
-31.31
-28.24
-26.26
-25.73
-26.65
-28.67
-31.17
-33.49
-35.13
-35.84
-35.55
-34.32
-32.25
-29.45
-26.16
-22.67
-19.23
-15.91
-12.42
-8.17
-2.57
4.60
12.86
21.05
27.72
31.64
32.49
31.00
28.75
27.62
29.01
33.46
40.48
49.01
57.78
65.76
72.35
77.23
80.23
81.28
80.47
78.05
74.37
69.73
64.27
57.99
50.73
42.42
33.19
23.43
13.64
4.21
-4.68
-13.04
-20.76
-27.72
-33.71
-38.48
-41.83
-43.74
-44.47
-44.47
-44.36
-44.40
-44.97
-46.44
-48.97
-52.17
-55.22
-57.06
-56.71
-53.54
-46.86
-37.05
-25.38
-13.33
-1.69
9.63
21.37
34.50
49.73
68.10
89.01
110.37
129.65
145.05
155.90
162.50
165.70
166.51
166.99
167.55
166.86
162.81
153.71
138.81
118.20
92.63
56.22
10.98
-35.23
-74.06
-101.86
-119.49
-129.53
-134.48
-136.10
-137.53
-137.48
-134.96
-130.06
-123.39
-115.49
-106.86
-98.36
-91.16
-84.87
-79.11
-74.51
-72.25
-73.21
-77.13
-82.67
-87.90
-90.98
-90.48
-85.01
-74.15
-58.31
-38.26
-14.92
10.45
36.06
59.73
79.44
94.31
104.39
110.47
113.69
114.93
114.42
111.65
105.66
95.56
80.99
62.19
39.98
15.72
-8.81
-31.62
-50.85
-65.14
-73.89
-77.31
-76.32
-72.12
-65.87
-58.33
-49.94
-40.92
-31.49
-22.01
-12.94
-4.72
2.31
8.01
12.38
15.58
17.91
19.74
21.50
23.48
25.73
27.95
29.57
29.94
28.56
25.21
20.00
13.30
5.63
-2.42
-10.25
-17.39
-23.66
-29.27
-34.76
-40.71
-47.26
-53.82
-58.95
-60.93
-58.46
-51.47
-41.23
-29.80
-19.14
-10.41
-3.62
1.99
7.41
13.35
20.12
27.67
35.81
44.18
52.22
59.12
63.97
65.94
64.76
60.78
54.97
48.61
42.93
38.72
36.18
34.88
33.90
32.15
28.71
23.11
15.47
6.46
-2.79
-11.00
-17.02
-20.24
-20.71
-19.25
-17.15
-15.69
-15.83
-17.92
-21.82
-27.07
-33.08
-39.24
-45.05
-50.02
-53.79
-56.11
-56.89
-56.05
-53.56
-49.42
-43.67
-36.55
-28.48
-20.02
-11.67
-3.83
3.25
9.41
14.35
17.69
19.00
18.00
14.74
9.57
3.21
-3.41
-9.33
-13.60
-15.47
-14.55
-10.92
-5.19
1.73
8.78
15.19
20.53
24.70
27.72
29.54
30.05
29.24
27.32
24.82
22.42
20.66
19.74
19.40
19.11
18.41
17.08
15.30
13.47
11.87
10.58
9.38
7.90
5.77
2.75
-1.25
-6.21
-11.96
-18.10
-24.02
-28.95
-32.20
-33.36
-32.42
-29.77
-26.01
-21.84
-17.87
-14.64
-12.64
-12.24
-13.70
-17.04
-22.00
-28.12
-34.80
-41.46
-47.63
-53.02
-57.51
-60.98
-63.33
-64.30
-63.58
-60.85
-55.91
-48.70
-39.33
-28.07
-15.44
-2.22
10.70
22.56
33.00
42.22
50.91
59.83
69.45
79.64
89.76
98.99
106.65
112.42
116.30
118.34
118.54
116.80
113.04
107.37
100.13
91.83
83.01
74.15
65.47
57.09
49.02
41.28
33.87
26.85
20.29
14.27
8.94
4.35
0.46
-2.98
-6.37
-10.25
-15.01
-20.82
-27.39
-33.98
-39.60
-43.24
-44.14
-42.11
-37.53
-31.29
-24.53
-18.27
-13.20
-9.57
-7.25
-5.91
-5.21
-4.86
-4.68
-4.52
-4.26
-3.82
-3.18
-2.34
-1.34
-0.21
1.01
2.28
3.57
4.86
6.15
7.40
8.51
9.28
9.45
8.74
7.00
4.27
0.82
-2.85
-6.17
-8.65
-9.98
-10.05
-8.90
-6.73
-3.75
-0.19
3.69
7.62
11.26
14.26
16.27
16.99
16.34
14.41
11.56
8.30
5.12
2.38
0.18
-1.55
-2.99
-4.29
-5.48
-6.60
-7.70
-8.95
-10.57
-12.73
-15.39
-18.41
-21.61
-24.89
-28.27
-31.77
-35.15
-37.88
-39.23
-38.55
-35.53
-30.51
-24.26
-17.76
-11.84
-6.93
-3.01
0.20
2.95
5.30
7.06
7.97
7.93
7.10
5.92
4.92
4.46
4.62
5.14
5.67
5.94
5.86
5.58
5.27
4.98
4.59
3.84
2.50
0.48
-2.12
-5.08
-8.18
-11.23
-14.06
-16.46
-18.13
-18.71
-17.91
-15.69
-12.29
-8.23
-4.06
-0.30
2.72
4.89
6.18
6.56
6.03
4.60
2.34
-0.52
-3.69
-6.85
-9.76
-12.29
-14.49
-16.54
-18.67
-21.08
-23.81
-26.80
-29.87
-32.85
-35.58
-37.96
-39.88
-41.17
-41.59
-40.89
-38.85
-35.36
-30.38
-23.94
-16.09
-6.98
3.13
13.76
24.19
33.60
41.26
46.65
49.64
50.35
49.14
46.47
42.78
38.55
34.25
30.31
27.08
24.72
23.18
22.22
21.51
20.75
19.80
18.65
17.27
15.62
13.54
10.91
7.76
4.34
1.05
-1.63
-3.46
-4.49
-5.07
-5.68
-6.72
-8.18
-9.70
-10.61
-10.28
-8.37
-5.00
-0.67
3.96
8.32
12.04
14.99
17.13
18.42
18.80
18.18
16.67
14.47
11.95
9.50
7.39
5.76
4.57
3.72
3.05
2.45
1.79
1.01
-0.05
-1.50
-3.40
-5.66
-8.03
-10.20
-11.91
-13.15
-14.18
-15.38
-17.07
-19.31
-21.84
-24.19
-25.87
-26.52
-25.96
-24.20
-21.34
-17.54
-13.01
-8.01
-2.91
1.92
6.14
9.45
11.74
12.94
13.10
12.30
10.72
8.62
6.33
4.23
2.59
1.51
0.88
0.44
-0.05
-0.72
-1.62
-2.63
-3.66
-4.66
-5.66
-6.67
-7.78
-9.02
-10.53
-12.50
-15.06
-18.22
-21.71
-24.96
-27.28
-28.02
-26.80
-23.60
-18.72
-12.75
-6.43
-0.44
4.67
8.59
11.27
12.89
13.79
14.33
14.74
15.08
15.22
15.03
14.41
13.40
12.17
10.91
9.77
8.84
8.08
7.38
6.59
5.61
4.40
3.01
1.53
0.00
-1.58
-3.32
-5.39
-7.94
-11.04
-14.54
-18.06
-21.04
-22.86
-22.99
-21.21
-17.70
-12.97
-7.72
-2.64
1.87
5.66
8.78
11.31
13.31
14.72
15.46
15.50
14.92
13.92
12.80
11.83
11.16
10.80
10.58
10.33
9.90
9.35
8.75
8.20
7.70
7.14
6.41
5.49
4.42
3.27
2.05
0.68
-1.02
-3.14
-5.53
-7.79
-9.31
-9.48
-7.89
-4.44
0.58
6.66
13.21
19.74
25.92
31.59
36.57
40.58
43.30
44.37
43.68
41.39
37.95
33.92
29.75
25.72
21.90
18.17
14.31
10.06
5.22
-0.24
-6.16
-12.16
-17.82
-22.79
-26.93
-30.34
-33.24
-35.92
-38.62
-41.47
-44.55
-47.76
-50.84
-53.31
-54.56
-53.99
-51.31
-46.64
-40.54
-33.78
-27.12
-21.03
-15.61
-10.76
-6.33
-2.34
1.00
3.36
4.50
4.53
3.83
2.99
2.49
2.52
2.92
3.38
3.65
3.68
3.63
3.72
4.03
4.44
4.67
4.41
3.41
1.63
-0.83
-3.79
-6.99
-10.23
-13.33
-16.22
-18.81
-20.91
-22.17
-22.13
-20.43
-16.98
-12.13
-6.57
-1.19
3.31
6.54
8.49
9.40
9.59
9.26
8.51
7.43
6.10
4.60
3.00
1.36
-0.31
-2.06
-3.91
-5.89
-8.00
-10.25
-12.65
-15.21
-17.81
-20.30
-22.51
-24.34
-25.78
-26.88
-27.64
-27.99
-27.85
-27.03
-25.45
-23.19
-20.36
-17.01
-12.98
-8.01
-1.95
5.02
12.52
19.81
25.88
29.81
31.10
29.95
27.07
23.48
20.09
17.84
17.08
17.42
17.95
17.92
17.20
16.21
15.52
15.37
15.93
16.78
16.85
15.01
11.01
5.83
1.16
-1.56
-1.82
0.64
5.49
12.11
20.02
29.27
40.01
51.61
62.57
67.19
63.11
54.25
48.31
49.84
56.41
60.89
56.49
40.83
17.03
-7.83
-27.24
-38.63
-43.69
-45.70
-46.87
-47.26
-45.84
-42.14
-36.64
-31.27
-28.77
-31.12
-38.04
-46.36
-51.00
-46.93
-31.35
-5.02
27.22
57.59
78.20
84.42
76.74
60.21
42.11
28.70
23.14
24.75
29.88
34.00
33.81
28.31
18.66
7.20
-3.69
-12.85
-19.69
-24.09
-25.88
-24.57
-19.52
-10.49
1.84
15.67
28.26
37.03
40.44
38.55
33.06
26.35
20.45
16.29
13.47
10.88
7.93
5.24
4.41
6.99
13.16
21.18
27.97
30.84
28.65
23.06
17.74
16.57
21.79
33.10
48.06
63.46
76.87
86.71
92.82
95.73
96.22
94.98
92.54
88.93
83.03
75.82
66.02
51.32
29.58
0.35
-34.30
-70.10
-102.32
-127.65
-145.38
-157.82
-168.29
-179.16
-190.51
-199.88
-203.20
-196.49
-177.49
-146.82
-108.31
-67.64
-30.49
-1.00
18.87
28.74
28.38
16.68
-7.78
-44.89
-90.51
-135.96
-170.15
-183.80
-173.41
-142.69
-100.73
-57.76
-21.44
5.17
22.74
33.34
38.48
38.69
34.25
26.34
17.25
9.47
4.53
2.36
1.55
0.23
-2.64
-6.90
-11.06
-13.06
-11.13
-4.67
5.58
17.82
29.95
40.49
49.09
56.52
64.35
74.62
89.49
110.74
138.80
171.83
204.96
230.94
241.95
232.09
199.49
146.98
80.95
9.09
-61.86
-127.21
-184.13
-230.83
-265.83
-288.03
-297.33
-295.27
-285.18
-271.47
-258.36
-248.59
-242.55
-238.27
-232.40
-221.64
-204.22
-180.50
-152.70
-123.82
-96.63
-72.84
-53.19
-37.56
-25.38
-15.62
-6.51
4.52
20.67
45.04
79.55
123.85
174.94
227.41
274.75
310.89
331.77
336.29
326.18
305.17
277.57
246.97
215.60
184.34
153.31
122.50
92.15
62.77
34.95
9.27
-13.68
-33.24
-48.70
-59.46
-65.51
-67.64
-67.35
-66.41
-66.24
-67.41
-69.73
-72.66
-75.77
-78.84
-81.63
-83.42
-82.84
-78.45
-69.61
-57.04
-42.67
-28.49
-15.32
-2.03
13.93
35.18
62.89
96.26
132.96
170.10
204.96
234.82
256.69
267.22
263.83
246.32
218.06
185.90
158.26
142.44
142.31
157.43
183.55
214.29
242.69
262.41
268.50
257.84
229.63
185.56
129.80
68.63
9.87
-38.23
-68.90
-79.13
-71.73
-55.43
-42.56
-44.61
-67.60
-109.66
-162.23
-214.37
-257.67
-289.30
-311.74
-329.83
-347.36
-365.05
-381.02
-392.62
-398.16
-397.45
-391.36
-380.74
-365.92
-346.89
-323.71
-296.97
-267.59
-236.27
-202.66
-165.52
-123.75
-77.77
-30.51
13.19
48.17
71.17
82.06
84.05
82.21
81.17
83.42
89.19
97.78
108.81
122.86
140.70
162.60
188.22
216.62
247.28
280.71
318.09
359.53
401.94
437.97
458.32
455.80
428.05
378.47
314.68
245.95
180.03
121.00
68.81
21.47
-22.16
-62.43
-99.29
-132.76
-162.00
-183.78
-190.79
-179.77
-154.87
-123.16
-91.09
-62.96
-41.95
-29.66
-25.92
-29.29
-36.06
-44.37
-50.69
-52.30
-49.44
-46.42
-48.53
-58.59
-75.46
-95.26
-113.22
-122.49
-118.85
-98.40
-66.26
-34.23
-12.17
-2.05
0.48
1.64
6.71
17.75
33.75
50.45
63.51
70.35
69.97
62.12
47.45
28.31
7.86
-9.92
-21.04
-24.83
-23.40
-19.57
-15.33
-11.04
-6.63
-0.73
6.78
13.12
15.82
15.00
13.14
12.80
14.82
18.51
21.03
18.74
6.65
-17.65
-52.01
-90.51
-126.68
-155.88
-175.84
-186.10
-175.62
-142.03
-94.59
-47.76
-10.74
14.55
30.07
38.85
43.59
45.88
44.16
36.46
22.02
2.61
-18.82
-38.36
-51.81
-55.33
-47.11
-29.40
-4.48
21.11
41.91
54.80
57.76
50.44
34.97
15.60
-2.38
-13.74
-13.97
-0.49
26.33
61.77
99.35
133.22
158.73
173.23
176.49
170.90
156.19
140.31
130.81
130.68
139.72
150.59
155.82
150.43
132.98
105.36
71.71
34.51
-5.03
-44.61
-82.50
-116.70
-145.39
-167.07
-180.47
-184.34
-178.96
-165.62
-146.09
-122.82
-97.91
-73.16
-50.07
-29.78
-12.78
0.21
8.85
13.62
15.63
16.86
19.55
25.54
35.48
48.62
62.41
73.43
78.56
75.74
64.60
46.89
25.88
5.41
-11.31
-22.65
-28.62
-30.32
-29.39
-27.97
-27.70
-29.60
-34.16
-41.61
-51.95
-64.90
-79.85
-96.32
-115.41
-138.34
-165.63
-195.97
-226.00
-251.02
-266.26
-268.39
-256.46
-232.87
-200.95
-163.86
-124.56
-86.38
-53.13
-27.66
-10.13
10.38
41.30
83.35
129.00
167.58
190.87
195.95
185.66
166.75
146.25
127.42
110.66
94.94
79.79
65.87
54.28
45.91
40.52
36.29
29.66
17.74
-0.18
-22.04
-43.79
-60.96
-70.07
-69.91
-61.98
-50.36
-39.44
-32.04
-28.46
-26.61
-23.24
-15.27
-0.83
19.87
44.33
69.03
90.56
106.65
116.50
120.53
119.78
115.43
108.40
99.55
89.98
81.11
74.43
70.91
70.47
71.80
72.82
71.52
66.77
58.74
48.43
37.34
26.91
18.00
10.66
4.25
-2.29
-10.19
-20.32
-33.25
-48.19
-62.49
-72.22
-74.04
-66.68
-51.58
-32.49
-13.64
0.91
9.73
14.44
18.51
24.42
32.45
40.83
46.52
47.17
40.18
25.07
4.00
-18.51
-38.70
-54.25
-64.79
-71.88
-77.36
-85.13
-98.01
-116.72
-139.26
-164.14
-190.15
-216.02
-240.53
-247.22
-225.75
-180.92
-128.81
-81.17
-42.28
-11.49
16.57
43.56
69.34
90.87
106.96
115.55
120.52
119.94
114.42
106.56
97.51
86.96
71.88
55.70
38.69
25.35
20.01
26.16
46.10
75.61
109.78
140.94
161.85
167.92
160.48
143.80
124.06
107.41
96.13
89.35
82.82
73.44
61.46
51.73
49.03
50.00
50.94
48.56
42.94
35.18
27.78
22.57
19.50
15.74
5.12
-15.39
-44.58
-76.70
-106.20
-129.51
-147.29
-158.73
-167.74
-178.68
-191.53
-202.04
-195.17
-163.66
-113.58
-61.00
-20.33
2.11
8.73
7.52
6.26
9.16
14.71
19.26
20.08
16.75
9.70
-0.42
-12.64
-26.56
-41.95
-59.36
-77.99
-94.76
-104.75
-103.80
-90.33
-66.32
-37.15
-10.02
8.00
13.33
7.40
-3.83
-13.53
-16.94
-13.31
-4.56
5.97
15.03
20.99
24.10
26.37
28.99
31.17
30.53
25.13
14.74
1.09
-12.90
-24.32
-29.49
-25.97
-13.39
6.49
30.91
56.83
80.97
99.86
110.64
114.17
113.86
114.15
118.88
130.54
149.58
173.82
198.67
206.62
185.72
137.59
77.56
23.12
-15.98
-39.02
-50.65
-56.85
-61.86
-65.33
-65.30
-61.07
-54.42
-48.10
-44.09
-42.86
-43.93
-46.60
-48.99
-49.14
-47.39
-45.22
-43.60
-42.13
-39.83
-36.27
-32.26
-28.93
-27.86
-30.57
-37.34
-46.18
-53.30
-55.71
-52.99
-47.24
-40.93
-35.38
-29.93
-23.68
-14.52
0.06
20.27
43.54
65.91
84.17
96.85
104.19
107.38
108.03
108.29
108.94
109.34
108.38
105.19
99.66
92.14
82.90
65.25
37.18
0.78
-39.86
-80.07
-114.08
-135.36
-139.32
-126.29
-102.08
-74.72
-52.17
-38.89
-34.42
-34.69
-34.86
-32.00
-26.05
-18.78
-11.65
-6.33
-4.64
-7.54
-15.12
-25.82
-36.57
-43.97
-45.45
-39.75
-28.23
-14.33
-2.13
4.45
3.33
-5.05
-18.08
-32.53
-44.10
-48.90
-45.03
-33.66
-18.83
-5.89
0.82
-0.11
-6.50
-13.34
-15.14
-7.89
10.15
37.71
70.94
103.57
128.18
138.01
129.43
103.58
66.57
27.80
-3.26
-20.27
-21.79
-10.83
7.20
26.84
43.92
55.85
61.09
58.97
49.77
35.02
17.39
0.03
-14.28
-23.92
-28.81
-30.03
-29.45
-29.05
-30.27
-33.38
-37.32
-40.06
-39.45
-34.40
-25.28
-14.14
-4.06
1.87
1.71
-4.82
-16.60
-31.75
-48.25
-63.93
-76.64
-84.45
-85.92
-80.07
-66.80
-47.38
-24.76
-3.05
14.13
24.93
29.94
31.80
33.80
38.21
44.76
50.57
49.81
38.29
17.07
-6.99
-25.50
-33.06
-28.74
-15.21
2.96
21.06
35.71
45.16
48.97
47.53
41.74
33.01
22.79
12.22
2.21
-6.30
-12.51
-16.17
-17.55
-16.96
-14.24
-8.87
-0.80
8.86
17.97
24.35
26.78
25.83
23.81
22.51
22.40
22.14
19.46
12.76
2.57
-8.60
-17.76
-23.07
-24.34
-22.21
-17.13
-9.03
1.71
13.23
21.96
24.07
17.77
4.87
-9.46
-19.20
-20.42
-13.08
-0.62
12.18
21.82
27.35
29.89
31.24
32.36
33.01
32.63
31.26
29.51
28.54
29.57
33.33
39.75
48.08
57.23
66.31
74.85
82.91
90.79
98.57
105.59
110.50
111.63
107.76
98.82
86.12
71.87
58.44
47.44
39.18
32.85
27.13
20.81
13.31
4.62
-5.06
-15.55
-26.89
-39.15
-52.25
-65.68
-78.61
-90.15
-99.74
-107.24
-112.93
-117.08
-119.72
-120.50
-118.93
-114.81
-108.46
-100.81
-93.10
-86.55
-81.94
-79.58
-79.19
-80.12
-81.31
-81.52
-79.58
-74.66
-66.63
-56.09
-44.19
-32.34
-21.71
-13.06
-6.67
-2.41
0.06
1.16
1.31
0.89
0.13
-0.84
-2.10
-3.75
-5.88
-8.50
-11.54
-14.86
-18.28
-21.64
-24.72
-27.35
-29.40
-31.02
-32.59
-34.66
-37.65
-41.39
-44.96
-46.86
-45.53
-40.02
-30.39
-17.71
-3.66
10.10
22.43
32.86
41.35
47.95
52.54
54.78
54.42
51.55
46.68
40.60
34.09
27.73
21.77
16.34
11.62
7.91
5.55
4.63
4.84
5.40
5.26
3.55
-0.15
-5.65
-12.21
-18.77
-24.29
-27.96
-29.45
-28.85
-26.61
-23.33
-19.57
-15.60
-11.31
-6.40
-0.70
5.64
12.25
18.62
24.35
29.12
32.83
35.59
37.52
38.62
38.76
38.02
36.81
35.89
35.71
36.57
38.42
40.75
42.59
43.00
41.56
38.52
34.70
30.15
25.25
21.15
19.28
20.57
25.26
33.01
43.24
55.13
65.84
73.34
77.71
80.17
81.36
80.81
77.18
68.92
55.14
33.72
6.25
-20.70
-39.34
-45.98
-42.90
-36.69
-34.78
-41.85
-62.16
-94.46
-131.93
-167.12
-197.00
-222.56
-245.67
-266.35
-257.30
-205.85
-125.23
-42.33
23.80
66.45
87.19
91.34
85.45
75.50
61.72
42.12
19.90
-0.11
-15.60
-26.41
-33.85
-39.68
-45.37
-54.61
-68.60
-84.29
-90.33
-80.23
-52.11
-9.30
40.24
86.01
116.38
124.78
112.98
89.14
62.36
39.88
24.88
16.55
11.99
7.56
1.98
-2.90
-3.77
1.22
12.37
28.57
48.37
70.64
94.47
118.69
141.12
158.07
164.73
157.96
138.31
110.57
82.11
59.85
47.61
45.35
50.32
58.95
68.60
77.54
84.14
86.37
82.40
72.05
57.73
43.67
33.38
27.49
22.82
14.05
-3.22
-29.70
-61.69
-92.87
-117.67
-133.84
-142.71
-147.44
-150.68
-153.22
-154.06
-151.63
-144.68
-133.65
-120.71
-108.50
-98.67
-91.49
-86.47
-83.22
-82.00
-82.62
-85.22
-90.24
-97.60
-105.61
-111.33
-111.93
-106.09
-94.56
-78.56
-61.07
-46.80
-40.24
-42.97
-52.64
-64.02
-70.47
-65.64
-43.46
-2.24
53.37
114.35
171.39
217.62
248.93
263.75
250.32
206.01
144.51
86.90
46.76
26.68
22.57
27.24
34.27
40.15
45.70
53.01
62.69
73.49
81.12
83.11
77.73
60.63
31.82
-1.94
-30.65
-47.47
-51.55
-46.64
-39.01
-33.55
-33.07
-38.30
-47.95
-59.67
-71.86
-83.90
-94.16
-100.07
-100.23
-95.78
-88.72
-85.53
-91.40
-104.92
-118.83
-125.37
-120.94
-109.48
-96.19
-85.94
-81.57
-82.41
-85.37
-86.87
-85.55
-79.46
-66.94
-46.75
-18.83
15.30
53.24
91.67
125.96
151.41
164.50
163.57
149.54
125.51
96.09
66.82
42.73
26.51
18.50
16.81
17.94
18.07
14.02
4.14
-11.19
-29.55
-48.53
-65.21
-77.34
-84.06
-85.99
-84.88
-82.99
-82.22
-82.32
-83.92
-84.66
-81.38
-71.37
-53.31
-27.70
3.25
36.17
69.93
99.96
127.11
153.65
181.45
210.69
239.49
264.08
279.54
284.62
272.31
244.06
203.21
153.19
97.51
40.97
-10.05
-49.13
-67.21
-68.03
-50.26
-15.79
30.10
81.11
133.41
185.89
208.25
232.84
247.77
251.88
247.02
237.22
228.16
226.82
238.52
263.14
299.00
301.91
249.60
150.96
38.21
-60.05
-132.60
-182.12
-216.87
-240.78
-261.45
-275.78
-279.69
-274.17
-265.88
-262.84
-270.43
-290.15
-318.06
-347.37
-365.69
-363.99
-341.17
-303.70
-260.65
-219.30
-182.97
-150.23
-119.04
-84.99
-46.72
-7.70
25.80
48.52
58.58
57.41
48.80
37.77
29.36
26.11
27.62
32.13
38.36
46.08
55.54
66.62
80.77
98.02
116.36
132.41
143.54
149.10
150.11
148.24
144.60
142.57
143.78
147.51
151.83
155.80
160.12
166.19
174.83
169.13
141.08
95.87
47.65
7.82
-19.49
-35.78
-45.70
-53.08
-63.80
-77.66
-92.02
-104.17
-112.54
-116.67
-117.50
-116.65
-116.78
-121.07
-129.13
-139.35
-149.83
-158.74
-163.90
-163.21
-155.58
-141.63
-123.69
-103.15
-81.65
-61.07
-42.96
-27.90
-15.45
-4.71
5.05
14.16
23.59
33.69
43.87
52.73
58.72
60.70
58.37
52.25
43.51
34.05
25.57
19.05
14.72
12.25
11.02
10.32
9.53
8.21
6.32
4.19
2.32
1.17
0.83
0.84
0.26
-1.97
-6.49
-13.04
-20.28
-26.16
-28.55
-26.10
-18.65
-7.28
6.16
19.70
31.81
41.59
48.67
52.96
54.42
53.08
49.20
43.36
36.44
29.45
23.18
18.08
14.12
10.96
8.13
5.24
2.22
-0.69
-3.13
-4.90
-6.15
-7.57
-10.11
-14.63
-21.44
-30.04
-39.08
-46.75
-51.28
-51.49
-47.01
-38.33
-26.47
-12.73
1.60
15.32
27.39
36.93
43.29
46.23
46.03
43.47
39.73
35.97
33.01
31.13
30.00
29.02
27.53
25.15
21.87
17.97
13.88
9.92
6.18
2.38
-1.96
-7.50
-14.74
-23.82
-34.31
-45.18
-55.00
-62.19
-65.53
-64.34
-58.64
-49.03
-36.53
-22.41
-8.02
5.38
16.74
25.37
31.09
34.12
35.05
34.54
33.16
31.27
29.06
26.66
24.14
21.53
18.83
15.91
12.67
9.04
5.05
0.82
-3.53
-7.98
-12.74
-18.07
-24.20
-30.97
-37.78
-43.54
-46.99
-47.04
-43.18
-35.63
-25.28
-13.47
-1.54
9.40
18.69
25.98
31.05
33.69
33.62
30.84
25.93
20.26
15.70
14.06
16.37
22.39
30.71
39.23
46.06
50.02
50.94
49.31
45.85
41.06
35.12
28.03
19.78
10.56
0.72
-9.22
-18.69
-26.99
-33.34
-36.84
-36.67
-32.34
-23.96
-12.41
0.83
13.99
25.48
34.31
40.11
43.06
43.63
42.26
39.33
35.22
30.41
25.50
21.08
17.45
14.56
12.05
9.51
6.69
3.65
0.71
-1.82
-3.81
-5.40
-6.92
-8.80
-11.44
-15.18
-20.16
-26.20
-32.58
-37.99
-40.69
-39.07
-32.31
-20.80
-6.12
9.40
23.53
34.87
43.09
48.73
52.59
55.24
56.74
56.84
55.36
52.49
48.90
45.52
43.22
42.55
43.70
46.39
49.92
53.22
54.86
53.34
47.54
37.28
23.80
9.78
-1.33
-6.31
-3.51
6.31
19.88
32.36
38.92
36.49
24.76
6.19
-15.09
-34.92
-50.55
-61.18
-67.66
-71.48
-73.79
-75.01
-74.90
-73.17
-69.89
-65.58
-61.09
-57.20
-54.35
-52.54
-51.29
-49.87
-47.49
-43.62
-38.17
-31.68
-25.17
-19.84
-16.72
-16.41
-18.95
-23.93
-30.59
-37.97
-44.90
-50.16
-52.67
-51.69
-47.06
-39.23
-29.14
-18.07
-7.38
1.66
8.12
11.52
11.98
10.16
7.12
3.94
1.32
-0.56
-2.04
-3.59
-5.57
-7.93
-10.32
-12.25
-13.40
-13.79
-13.75
-13.85
-14.62
-16.47
-19.54
-23.62
-28.16
-32.23
-34.75
-34.69
-31.44
-25.05
-16.16
-5.85
4.72
14.54
22.88
29.23
33.25
34.72
33.70
30.54
25.91
20.65
15.48
10.88
7.01
3.78
1.06
-1.24
-3.11
-4.53
-5.57
-6.49
-7.67
-9.51
-12.35
-16.29
-21.11
-26.28
-31.00
-34.28
-35.17
-32.97
-27.42
-18.82
-8.04
3.60
14.69
23.95
30.54
34.12
34.92
33.47
30.44
26.48
22.04
17.43
12.82
8.33
4.11
0.39
-2.62
-4.84
-6.40
-7.65
-9.08
-11.15
-14.18
-18.28
-23.38
-29.19
-35.18
-40.54
-44.24
-45.21
-42.67
-36.47
-27.14
-15.85
-3.97
7.22
16.74
23.97
28.56
30.37
29.57
26.64
22.30
17.36
12.52
8.19
4.53
1.49
-1.03
-3.10
-4.79
-6.25
-7.65
-9.23
-11.26
-14.05
-17.93
-23.10
-29.42
-36.12
-41.85
-44.97
-44.03
-38.47
-28.74
-16.31
-3.12
8.99
18.71
25.44
29.15
30.18
29.04
26.27
22.42
18.00
13.44
9.05
5.04
1.59
-1.23
-3.40
-5.02
-6.31
-7.56
-9.04
-10.98
-13.59
-17.07
-21.55
-26.91
-32.62
-37.58
-40.36
-39.60
-34.50
-25.20
-12.71
1.34
15.23
27.56
37.42
44.44
48.58
50.02
49.05
46.09
41.64
36.35
30.90
25.93
21.90
18.97
17.00
15.55
14.14
12.32
9.83
6.56
2.39
-2.82
-9.33
-17.23
-26.26
-35.54
-43.60
-48.73
-49.46
-45.15
-36.20
-24.01
-10.47
2.58
13.78
22.45
28.41
31.81
32.86
31.83
29.02
24.91
20.04
14.90
9.86
5.06
0.49
-3.88
-7.98
-11.68
-14.81
-17.33
-19.44
-21.54
-24.13
-27.63
-32.16
-37.35
-42.26
-45.47
-45.48
-41.12
-32.09
-19.17
-4.05
11.19
24.75
35.58
43.39
48.36
50.75
50.71
48.28
43.72
37.63
30.91
24.55
19.29
15.51
13.23
12.25
12.35
13.28
14.74
16.26
17.17
16.64
13.82
8.10
-0.45
-10.89
-21.33
-29.32
-32.59
-29.87
-21.28
-8.41
6.39
20.75
32.93
41.99
47.58
49.55
47.89
42.87
35.31
26.68
18.78
13.17
10.63
10.91
13.04
15.72
17.92
19.09
19.18
18.36
16.88
14.94
12.65
9.99
6.83
2.94
-1.92
-7.62
-13.49
-18.33
-20.63
-19.18
-13.51
-4.08
7.87
20.72
32.94
43.38
51.21
55.95
57.31
55.22
49.93
42.08
32.64
22.77
13.51
5.53
-0.92
-6.01
-10.05
-13.39
-16.16
-18.29
-19.63
-20.11
-19.92
-19.54
-19.58
-20.61
-22.81
-25.89
-29.00
-31.01
-30.77
-27.49
-21.01
-11.83
-1.03
10.06
20.06
27.92
33.01
35.18
34.74
32.26
28.48
24.05
19.50
15.14
11.08
7.32
3.80
0.40
-2.99
-6.46
-10.03
-13.61
-16.96
-19.90
-22.35
-24.49
-26.71
-29.52
-33.07
-36.88
-39.78
-40.16
-36.56
-28.26
-15.69
-0.34
15.62
30.06
41.33
48.52
51.28
49.72
44.31
35.84
25.37
14.07
3.06
-6.81
-15.15
-21.95
-27.20
-30.68
-31.86
-30.11
-25.08
-17.04
-6.90
3.51
11.74
15.43
13.17
5.06
-7.05
-19.70
-28.46
-28.53
-16.89
6.76
39.83
77.57
114.16
144.17
163.87
172.11
171.02
163.89
154.11
144.54
137.27
133.24
132.10
132.52
132.65
131.49
127.52
119.16
105.57
87.34
66.38
45.48
27.67
8.69
-10.41
-26.22
-36.93
-44.21
-50.96
-58.43
-65.57
-70.14
-71.28
-69.41
-67.06
-67.75
-73.95
-85.58
-100.30
-115.20
-128.66
-137.11
-139.42
-136.98
-132.58
-128.79
-126.91
-127.12
-129.24
-133.14
-138.65
-145.29
-152.11
-157.63
-159.88
-156.94
-147.70
-132.58
-113.51
-93.10
-73.82
-57.06
-42.87
-30.18
-17.61
-4.34
9.40
22.49
33.50
41.27
45.42
46.45
45.38
43.35
41.12
38.83
36.13
32.57
27.88
22.36
16.80
12.04
8.61
6.48
5.13
3.92
2.46
0.75
-0.90
-2.19
-3.11
-4.02
-5.44
-7.68
-10.54
-13.18
-14.32
-12.75
-7.79
0.38
10.73
21.82
32.17
40.70
46.91
50.72
52.40
52.31
50.94
48.82
46.47
44.30
42.52
41.11
39.82
38.37
36.47
33.96
30.72
26.71
21.92
16.43
10.42
4.15
-2.13
-8.13
-13.51
-17.80
-20.37
-20.58
-18.01
-12.72
-5.35
2.93
10.75
16.80
20.21
20.64
18.29
13.85
8.44
3.44
0.11
-0.98
-0.48
-0.36
-3.42
-12.18
-27.61
-48.39
-71.13
-91.47
-105.62
-111.60
-109.60
-101.49
-89.94
-77.48
-65.92
-56.16
-48.12
-40.91
-33.21
-23.72
-11.75
2.48
17.82
32.55
45.06
54.30
59.99
62.56
62.82
61.74
60.29
59.29
59.29
60.39
62.15
63.68
63.89
61.89
57.33
50.52
42.35
34.08
26.88
21.55
18.39
17.30
17.97
20.26
24.30
30.44
38.93
49.61
61.67
73.77
84.36
92.17
96.56
97.53
95.53
91.24
85.34
78.43
70.97
63.20
55.05
46.15
36.01
24.24
10.81
-3.71
-18.27
-31.48
-42.06
-49.24
-53.18
-55.03
-56.64
-59.96
-66.19
-75.24
-85.64
-95.08
-101.22
-102.55
-98.86
-91.29
-81.85
-72.79
-65.87
-61.79
-60.13
-59.58
-58.51
-55.65
-50.42
-42.96
-33.80
-23.47
-12.31
-0.48
11.80
24.18
36.14
47.18
57.07
66.03
74.73
84.19
95.44
109.22
125.73
144.63
165.09
185.80
204.94
220.13
228.62
227.80
215.97
193.08
160.99
123.03
83.09
44.47
9.25
-21.89
-49.40
-74.35
-98.26
-123.09
-151.23
-185.14
-226.43
-274.47
-325.40
-372.42
-407.33
-423.24
-417.00
-390.24
-348.52
-299.02
-248.10
-199.78
-155.74
-116.31
-81.63
-52.10
-28.20
-9.89
3.58
13.58
21.54
28.58
35.24
41.47
46.88
50.94
53.31
54.05
53.69
53.08
53.03
53.89
55.31
56.48
56.52
54.95
51.81
47.53
42.51
37.01
31.08
24.93
19.15
14.77
12.94
14.42
19.20
26.40
34.57
42.18
48.11
51.82
53.37
53.23
51.96
50.03
47.69
44.98
41.91
38.54
35.09
31.89
29.18
26.93
24.88
22.60
19.80
16.42
12.68
8.90
5.31
2.00
-1.14
-4.30
-7.67
-11.44
-15.67
-20.22
-24.56
-27.73
-28.57
-26.09
-19.94
-10.61
0.67
12.34
22.99
31.70
38.07
42.09
44.04
44.39
43.73
42.73
41.92
41.57
41.63
41.86
42.09
42.43
43.22
44.93
47.76
51.54
55.72
59.47
61.85
61.87
58.65
51.72
41.41
29.13
17.19
8.11
3.63
4.03
8.18
14.38
21.55
30.19
42.29
60.13
84.67
114.30
144.79
170.59
186.81
190.75
182.40
163.75
137.52
106.22
71.77
35.99
1.02
-30.58
-56.34
-74.61
-85.22
-89.33
-88.93
-86.13
-82.75
-80.21
-79.64
-81.92
-87.61
-96.82
-108.85
-122.21
-134.90
-144.91
-150.73
-151.89
-148.96
-143.51
-137.76
-133.75
-132.65
-134.33
-137.40
-139.57
-138.43
-132.19
-120.44
-104.72
-87.37
-70.66
-56.04
-44.10
-34.77
-27.67
-22.31
-18.38
-16.62
-17.34
-20.00
-23.51
-26.88
-29.73
-32.24
-34.78
-37.88
-43.46
-52.51
-64.51
-77.74
-90.37
-101.06
-109.05
-113.77
-114.99
-114.51
-113.44
-111.61
-108.18
-102.97
-96.94
-91.78
-88.86
-75.38
-45.06
-0.55
48.51
93.21
129.33
156.15
173.85
185.29
192.04
193.20
188.65
179.98
170.05
159.75
149.98
141.01
132.93
125.54
117.31
107.50
96.68
86.33
77.67
71.28
66.75
63.25
59.65
54.23
46.19
36.00
24.96
14.30
4.84
-3.21
-9.89
-15.39
-20.26
-24.68
-28.38
-30.70
-31.02
-28.90
-24.33
-17.71
-9.71
-1.07
7.83
17.17
27.43
38.83
50.87
61.95
69.71
71.65
66.08
52.92
33.94
12.32
-8.22
-24.52
-34.89
-39.35
-39.32
-36.81
-33.73
-31.30
-30.00
-29.72
-30.11
-30.82
-31.57
-32.20
-32.66
-33.06
-33.66
-34.91
-37.22
-40.67
-44.87
-48.76
-50.98
-50.21
-45.62
-37.14
-25.51
-12.00
1.97
15.11
26.55
35.83
42.86
47.72
50.56
51.50
50.63
48.09
44.20
39.44
34.43
29.83
26.07
23.31
21.37
19.80
18.04
15.57
12.15
7.85
3.05
-1.75
-6.16
-10.02
-13.44
-16.73
-20.27
-24.38
-29.34
-35.18
-41.61
-47.91
-52.94
-55.42
-54.28
-49.09
-40.27
-28.97
-16.71
-4.92
5.40
13.71
19.94
24.18
26.61
27.44
26.90
25.33
23.11
20.66
18.38
16.54
15.23
14.38
13.72
12.92
11.73
10.08
8.05
5.88
3.77
1.81
-0.11
-2.20
-4.72
-7.85
-11.71
-16.38
-21.96
-28.41
-35.44
-42.28
-47.67
-50.12
-48.41
-41.99
-31.31
-17.70
-2.91
11.37
23.91
33.98
41.33
45.87
47.61
46.62
43.13
37.66
31.01
24.18
18.09
13.37
10.17
8.13
6.54
4.67
2.11
-1.06
-4.36
-7.24
-9.53
-11.62
-14.31
-18.38
-24.13
-31.11
-38.37
-44.93
-50.23
-54.48
-58.48
-63.11
-68.72
-74.82
-80.09
-82.96
-82.01
-76.23
-64.65
-46.18
-19.87
14.09
53.29
92.79
126.22
148.15
156.24
152.32
141.35
129.01
119.29
113.35
109.98
107.28
104.08
100.30
96.32
92.03
86.39
77.94
65.64
49.70
31.68
13.93
-1.37
-13.06
-21.37
-27.83
-34.62
-43.80
-56.63
-73.01
-91.27
-108.37
-120.51
-124.19
-117.39
-100.35
-75.69
-47.61
-20.53
2.22
19.04
30.01
36.07
38.29
37.34
33.63
27.70
20.57
13.65
8.30
5.31
4.50
4.91
5.19
4.34
2.04
-1.26
-4.65
-7.30
-8.92
-9.90
-11.06
-13.30
-17.17
-22.69
-29.53
-37.13
-44.93
-52.40
-58.81
-63.20
-64.42
-61.40
-53.67
-41.72
-26.97
-11.40
3.11
15.30
24.71
31.49
35.99
38.42
38.83
37.26
33.97
29.69
25.33
21.77
19.51
18.54
18.38
18.31
17.74
16.29
13.96
11.00
7.74
4.39
0.99
-2.64
-6.76
-11.60
-17.37
-24.19
-32.09
-40.84
-49.87
-58.04
-63.85
-65.78
-62.78
-54.72
-42.49
-27.77
-12.54
1.38
12.61
20.41
24.66
25.78
24.65
22.41
20.26
19.30
20.30
23.60
28.99
35.66
42.30
47.26
49.14
47.19
41.67
33.80
25.25
17.49
11.28
6.54
2.58
-1.40
-6.01
-11.44
-17.46
-23.45
-28.51
-31.55
-31.62
-28.26
-21.74
-13.18
-4.18
3.66
9.26
12.26
12.97
12.07
10.23
7.96
5.51
3.00
0.53
-1.68
-3.37
-4.24
-4.16
-3.26
-1.94
-0.71
0.04
0.17
-0.20
-0.80
-1.54
-2.62
-4.56
-7.96
-13.19
-20.18
-28.40
-37.05
-45.27
-52.18
-56.89
-58.46
-56.11
-49.46
-38.91
-25.62
-11.31
2.38
14.35
24.23
32.23
38.53
42.97
45.01
44.12
40.33
34.44
27.84
21.97
17.73
15.20
13.73
12.41
10.53
7.91
4.81
1.77
-0.79
-2.69
-4.12
-5.53
-7.44
-10.29
-14.32
-19.57
-25.83
-32.68
-39.37
-44.80
-47.65
-46.60
-40.81
-30.23
-15.89
0.42
16.53
30.61
41.62
49.39
54.39
57.31
58.64
58.58
57.15
54.37
50.47
45.83
40.83
35.68
30.43
24.99
19.37
13.81
8.72
4.48
1.23
-1.28
-3.65
-6.56
-10.55
-15.76
-21.94
-28.56
-35.02
-40.81
-45.56
-48.97
-50.67
-50.23
-47.19
-41.28
-32.58
-21.56
-8.93
4.63
18.60
32.72
46.57
59.44
70.08
76.89
78.52
74.41
65.24
52.88
39.86
28.58
20.60
16.33
15.08
15.62
16.60
16.95
16.07
13.79
10.17
5.48
0.02
-5.91
-12.10
-18.50
-25.18
-32.18
-39.21
-45.49
-49.67
-50.18
-45.71
-35.73
-20.70
-2.00
18.53
39.07
58.20
74.92
88.56
98.62
104.68
106.55
104.39
98.71
90.35
80.25
69.27
58.04
46.97
36.26
25.97
16.09
6.72
-2.03
-10.00
-17.12
-23.56
-29.69
-36.06
-43.26
-51.69
-61.53
-72.62
-84.45
-96.15
-106.42
-113.72
-116.51
-113.71
-105.01
-91.16
-73.78
-54.98
-36.92
-21.35
-9.46
-1.78
1.78
1.84
-0.56
-4.22
-7.93
-10.83
-12.38
-12.45
-11.19
-8.82
-5.61
-1.82
2.26
6.26
9.73
12.15
13.14
12.48
10.25
6.78
2.49
-2.28
-7.42
-13.03
-19.28
-26.15
-33.25
-39.72
-44.32
-45.79
-43.16
-36.12
-25.21
-11.69
2.79
16.59
28.55
37.98
44.57
48.23
49.00
47.11
42.96
37.26
30.91
24.93
20.21
17.23
15.98
16.08
16.87
17.58
17.64
16.73
15.02
12.83
10.37
7.68
4.98
2.41
-0.07
-2.62
-5.69
-9.26
-13.05
-16.34
-17.94
-15.77
-8.27
4.84
22.32
41.25
59.09
73.66
83.57
88.48
90.10
90.39
90.74
91.52
91.79
91.52
90.79
89.54
87.58
85.77
84.26
82.41
79.28
73.96
68.57
66.25
69.53
70.15
62.06
43.58
18.23
-3.29
-21.30
-36.56
-49.04
-59.14
-65.77
-66.55
-60.01
-46.22
-26.90
-5.56
15.74
35.48
52.68
67.07
80.24
94.16
110.54
129.96
150.70
170.31
184.78
189.36
180.47
157.99
125.06
86.87
48.65
13.35
-18.02
-46.59
-74.25
-102.09
-129.28
-153.77
-173.47
-187.33
-195.95
-200.64
-203.12
-204.85
-206.63
-208.32
-209.24
-208.50
-205.41
-199.78
-191.80
-182.19
-172.01
-162.40
-154.47
-149.02
-146.58
-147.41
-151.48
-158.44
-167.40
-176.90
-184.98
-189.58
-188.95
-182.00
-168.27
-147.70
-120.45
-87.04
-48.83
-8.72
28.89
58.90
77.10
81.84
74.73
60.11
43.24
28.29
17.08
9.15
3.13
-1.74
-4.63
-3.47
3.79
17.76
36.97
58.28
78.26
94.51
106.44
114.99
121.68
127.51
132.55
136.12
137.65
137.27
136.06
135.52
136.92
140.55
145.63
150.72
154.54
156.77
158.50
162.04
170.11
184.58
205.44
230.19
254.36
272.83
281.58
278.88
265.77
245.31
221.44
197.78
176.80
159.64
146.25
135.81
127.20
119.26
111.03
101.68
90.45
76.45
58.74
36.46
9.37
-21.90
-55.93
-90.86
-124.85
-156.39
-184.25
-207.28
-224.46
-235.17
-239.62
-239.07
-235.44
-230.74
-226.18
-221.95
-217.19
-210.82
-202.03
-190.76
-177.76
-164.17
-151.30
-140.29
-132.02
-126.85
-124.34
-123.00
-120.33
-113.50
-100.28
-80.21
-54.87
-27.55
-1.99
18.83
33.73
43.22
48.96
52.81
56.11
59.43
62.71
65.48
67.00
66.55
63.48
57.46
48.65
37.65
25.42
12.95
1.12
-9.45
-18.26
-24.99
-29.55
-32.26
-33.96
-35.82
-39.01
-44.27
-51.70
-60.94
-71.36
-82.13
-92.21
-100.12
-104.02
-102.24
-93.96
-79.83
-62.06
-43.69
-27.60
-15.66
-8.37
-5.18
-5.02
-6.84
-9.86
-13.46
-17.10
-20.35
-22.86
-24.49
-25.19
-24.99
-23.93
-22.21
-20.20
-18.52
-17.81
-18.44
-20.35
-22.98
-25.59
-27.54
-28.61
-29.03
-29.41
-30.52
-32.92
-36.76
-41.59
-46.37
-49.62
-49.81
-45.75
-37.03
-24.19
-8.59
7.90
23.41
36.44
46.12
52.18
54.93
55.01
53.29
50.69
47.93
45.43
43.22
41.02
38.43
35.23
31.50
27.58
23.92
20.77
18.12
15.68
13.03
9.93
6.36
2.51
-1.41
-5.24
-9.03
-12.92
-17.20
-22.19
-28.13
-35.02
-42.31
-48.76
-52.53
-51.74
-45.17
-32.99
-16.84
0.65
16.80
29.76
38.94
44.76
48.03
49.30
48.77
46.63
43.36
39.68
36.31
33.71
31.84
30.31
28.46
25.85
22.54
19.04
15.92
13.54
11.87
10.55
9.11
6.67
2.71
-2.62
-8.43
-13.67
-17.60
-20.16
-22.02
-24.45
-29.67
-38.83
-50.67
-61.62
-67.46
-65.12
-53.78
-35.09
-12.56
7.50
19.99
23.46
20.21
14.01
8.00
3.89
2.05
1.87
-1.22
-11.23
-28.89
-51.56
-75.90
-99.67
-121.45
-139.90
-153.75
-166.65
-182.87
-204.58
-231.19
-261.62
-295.13
-330.61
-365.83
-368.47
-319.12
-225.06
-116.11
-20.39
49.41
92.95
115.54
124.20
124.95
121.24
115.74
112.96
118.56
135.92
164.45
201.08
243.03
283.18
312.30
322.73
311.35
280.45
236.51
187.54
141.58
105.15
81.99
70.98
68.23
69.68
72.50
75.66
77.80
77.01
71.79
62.29
50.00
37.29
27.19
22.70
27.46
42.53
64.93
88.29
105.16
109.43
98.32
74.14
44.38
21.54
16.22
32.19
65.49
107.54
149.12
182.74
204.40
200.01
165.49
111.97
57.86
15.01
-14.25
-32.13
-41.77
-45.61
-46.18
-42.75
-35.27
-25.94
-18.16
-14.30
-15.02
-20.55
-30.95
-43.32
-53.51
-58.30
-56.99
-51.06
-42.55
-32.98
-24.49
-18.22
-13.75
-9.22
-3.59
2.30
6.70
8.37
7.14
1.17
-10.06
-24.43
-38.21
-48.55
-54.60
-56.83
-56.31
-54.02
-54.66
-61.25
-73.13
-87.57
-102.68
-117.69
-131.58
-142.90
-150.66
-160.75
-179.33
-208.58
-246.55
-289.08
-330.30
-363.04
-381.42
-352.51
-268.27
-154.39
-48.83
27.34
72.82
94.92
101.27
96.71
83.80
60.01
26.88
-7.30
-31.44
-37.99
-25.20
6.86
52.62
104.29
150.37
182.72
199.82
205.05
202.58
195.35
184.98
171.74
155.63
134.55
108.29
79.92
54.30
35.10
23.58
18.75
17.88
17.91
15.25
7.88
-3.80
-17.67
-31.31
-42.58
-49.65
-51.42
-47.51
-38.98
-27.77
-16.09
-5.81
1.92
7.17
11.30
16.26
23.88
34.84
48.38
62.54
75.10
84.39
89.81
91.75
90.80
87.35
81.23
72.18
60.39
46.92
33.57
22.22
14.08
9.21
6.69
5.23
3.82
2.12
0.42
-0.87
-1.62
-2.28
-3.77
-7.12
-13.22
-22.72
-35.98
-53.07
-73.50
-95.63
-116.28
-131.03
-135.30
-126.08
-103.41
-70.79
-34.10
0.40
28.00
46.53
56.09
58.02
53.84
44.99
32.89
19.32
6.27
-4.52
-12.29
-17.48
-21.35
-25.22
-29.74
-34.76
-39.69
-44.00
-47.58
-50.74
-53.91
-57.38
-61.31
-65.82
-71.17
-77.52
-84.58
-91.15
-95.09
-93.71
-84.62
-66.72
-40.83
-9.74
22.43
51.26
73.12
85.95
89.62
85.68
76.63
65.13
53.21
41.99
31.67
21.77
11.43
-0.59
-15.67
-34.83
-57.90
-82.66
-104.81
-119.02
-120.83
-108.63
-84.55
-53.87
-23.08
2.39
19.57
28.08
29.22
24.85
16.71
6.44
-4.02
-12.37
-16.33
-14.37
-6.26
6.87
23.02
40.13
56.80
72.52
87.44
101.83
115.54
127.66
136.66
140.94
139.49
132.46
121.30
108.32
95.95
85.92
78.94
74.68
72.34
71.22
70.96
71.53
72.91
74.78
76.44
76.97
75.48
71.26
63.97
53.73
41.19
27.67
15.03
5.40
0.59
1.54
7.97
18.43
30.80
42.97
53.33
60.97
65.51
66.73
64.42
58.34
48.32
34.53
17.58
-1.38
-20.78
-38.77
-53.60
-63.98
-69.47
-70.61
-68.62
-65.05
-61.10
-57.55
-54.73
-52.91
-52.49
-54.03
-58.06
-64.76
-73.68
-83.57
-92.50
-98.16
-98.50
-92.34
-79.98
-63.22
-44.86
-27.79
-13.99
-4.11
2.39
6.52
9.02
10.05
9.33
6.80
2.97
-0.99
-3.77
-4.59
-3.57
-1.81
-0.77
-1.59
-4.59
-9.23
-14.49
-19.46
-23.76
-27.58
-31.45
-35.83
-40.98
-46.91
-53.46
-60.22
-66.33
-70.34
-70.40
-64.80
-52.58
-34.12
-11.11
13.82
37.90
58.85
75.26
86.57
92.76
94.15
91.27
84.90
76.15
66.30
56.62
48.03
40.91
35.04
29.76
24.28
18.06
11.06
3.70
-3.33
-9.39
-14.11
-17.52
-19.92
-21.71
-23.27
-24.95
-27.09
-30.01
-33.87
-38.50
-43.27
-47.23
-49.36
-49.13
-46.72
-43.12
-39.75
-38.02
-38.80
-42.17
-47.41
-53.30
-58.47
-61.78
-62.45
-60.26
-55.38
-48.26
-39.54
-30.01
-20.61
-12.28
-5.82
-1.57
0.75
2.02
3.43
6.02
10.19
15.59
21.23
25.90
28.51
28.37
25.37
19.97
13.24
6.81
2.59
2.23
6.52
14.92
25.72
36.56
45.38
51.05
53.59
53.78
52.47
50.12
46.72
42.07
36.22
29.67
23.29
17.86
13.76
10.83
8.46
5.96
2.85
-1.02
-5.48
-10.22
-15.00
-19.72
-24.42
-29.23
-34.24
-39.52
-45.13
-51.19
-57.85
-65.03
-72.20
-78.27
-81.71
-81.05
-75.39
-64.77
-50.18
-33.21
-15.53
1.49
16.90
30.06
40.59
48.20
52.87
54.89
54.78
53.25
50.97
48.53
46.38
44.84
44.07
43.92
43.93
43.43
41.81
38.86
34.87
30.51
26.51
23.22
20.53
17.98
15.05
11.39
6.90
1.64
-4.20
-10.24
-15.73
-19.44
-20.01
-16.31
-8.08
3.84
17.75
31.73
44.19
54.40
62.33
68.38
72.94
76.09
77.62
77.17
74.45
69.48
62.67
54.79
46.80
39.63
33.92
29.84
27.15
25.31
23.76
22.13
20.22
17.95
15.19
11.60
6.73
0.26
-7.95
-17.62
-28.18
-38.83
-48.60
-56.36
-60.97
-61.39
-57.07
-48.26
-36.08
-22.34
-8.98
2.44
11.20
17.37
21.50
24.17
25.61
25.73
24.30
21.26
16.95
12.07
7.37
3.39
0.22
-2.48
-5.28
-8.62
-12.64
-17.14
-21.72
-26.04
-29.98
-33.70
-37.58
-42.14
-47.93
-55.42
-64.79
-75.77
-87.40
-98.08
-105.75
-108.48
-105.01
-95.19
-80.15
-61.95
-43.00
-25.43
-10.63
0.74
8.71
13.59
15.83
15.88
14.34
11.93
9.63
8.46
9.18
12.07
16.79
22.43
27.81
31.88
33.96
33.92
32.08
28.98
25.21
21.10
16.86
12.47
7.86
2.85
-2.76
-9.11
-16.17
-23.54
-30.41
-35.53
-37.50
-35.19
-28.16
-16.93
-2.89
12.04
25.98
37.51
45.94
51.18
53.57
53.63
51.85
48.71
44.68
40.23
35.85
31.93
28.70
26.15
24.10
22.22
20.17
17.70
14.66
11.09
7.08
2.81
-1.61
-6.06
-10.44
-14.79
-19.22
-24.01
-29.53
-35.93
-42.96
-49.78
-54.98
-56.98
-54.52
-47.08
-35.14
-20.05
-3.58
12.56
27.08
39.29
48.92
55.85
59.94
61.01
59.03
54.31
47.65
40.19
33.04
26.86
21.75
17.32
13.12
8.99
5.19
2.13
0.06
-1.18
-2.14
-3.48
-5.66
-8.76
-12.52
-16.75
-21.47
-26.96
-33.52
-41.10
-48.92
-55.53
-59.14
-58.17
-51.89
-40.68
-25.95
-9.78
5.73
18.90
28.73
34.92
37.69
37.51
35.04
31.01
26.30
21.77
18.19
16.06
15.43
15.90
16.70
16.98
16.08
13.78
10.35
6.38
2.46
-1.00
-3.97
-6.76
-9.81
-13.63
-18.62
-25.01
-32.71
-41.22
-49.43
-55.82
-58.67
-56.68
-49.46
-37.74
-23.21
-7.94
6.17
17.92
26.87
33.12
36.91
38.44
37.81
35.20
31.10
26.28
21.71
18.19
16.14
15.34
15.04
14.28
12.26
8.72
4.00
-1.02
-5.45
-8.70
-10.76
-12.20
-13.87
-16.49
-20.47
-25.80
-32.12
-38.86
-45.25
-50.22
-52.54
-51.04
-45.04
-34.70
-21.13
-6.18
8.08
20.07
28.99
34.97
38.63
40.66
41.43
40.88
38.85
35.32
30.84
26.33
22.77
20.76
20.23
20.46
20.55
19.76
17.79
14.75
10.93
6.59
1.88
-3.09
-8.23
-13.42
-18.63
-24.02
-29.84
-36.30
-43.18
-49.70
-54.49
-56.02
-53.09
-45.32
-33.40
-18.90
-3.85
9.95
21.34
29.90
35.81
39.45
41.14
41.05
39.31
36.13
31.96
27.41
23.09
19.43
16.57
14.29
12.21
9.95
7.33
4.38
1.36
-1.46
-3.98
-6.33
-8.83
-11.87
-15.68
-20.25
-25.42
-31.06
-37.24
-44.01
-51.10
-57.61
-62.00
-62.49
-57.81
-47.79
-33.57
-17.21
-1.04
13.09
24.21
32.14
37.15
39.62
39.86
38.16
34.88
30.55
25.70
20.74
15.76
10.58
4.84
-1.64
-8.64
-15.31
-20.38
-22.58
-21.26
-16.71
-10.24
-3.57
1.73
4.79
5.52
4.23
1.22
-3.47
-10.04
-18.34
-27.51
-35.79
-40.96
-41.08
-35.26
-24.04
-9.21
6.75
21.50
33.43
41.90
47.12
49.84
50.83
50.77
50.11
49.13
48.03
46.89
45.68
44.24
42.35
39.87
36.80
33.30
29.64
26.07
22.69
19.47
16.19
12.59
8.42
3.60
-1.73
-7.24
-12.52
-17.40
-22.06
-26.93
-32.51
-38.78
-44.94
-49.50
-50.69
-47.21
-38.81
-26.42
-11.77
3.16
16.74
27.86
35.96
40.83
42.49
41.21
37.60
32.57
27.20
22.34
18.44
15.42
12.83
10.21
7.35
4.39
1.69
-0.44
-1.92
-3.08
-4.49
-6.75
-10.32
-15.26
-21.34
-28.04
-34.83
-41.22
-46.96
-52.07
-56.76
-61.20
-65.22
-68.15
-68.91
-66.34
-59.80
-49.56
-36.81
-23.40
-11.12
-1.19
5.98
10.64
13.37
14.70
14.91
14.18
12.69
10.74
8.71
7.01
5.90
5.45
5.50
5.77
5.92
5.75
5.26
4.65
4.21
4.08
4.10
3.79
2.46
-0.48
-5.34
-12.08
-20.43
-30.00
-40.21
-50.22
-58.75
-64.19
-65.03
-60.42
-50.62
-37.04
-21.79
-6.96
5.95
16.31
24.14
29.76
33.45
35.36
35.62
34.50
32.47
30.13
28.00
26.35
25.19
24.28
23.30
21.98
20.14
17.74
14.83
11.55
8.11
4.72
1.53
-1.41
-4.24
-7.23
-10.81
-15.32
-20.91
-27.25
-33.37
-37.79
-38.87
-35.38
-27.03
-14.67
-0.11
14.51
27.37
37.44
44.50
48.83
50.79
50.59
48.35
44.36
39.19
33.73
28.87
25.18
22.70
21.02
19.50
17.56
14.96
11.80
8.44
5.30
2.62
0.41
-1.64
-4.00
-7.18
-11.57
-17.32
-24.32
-32.11
-39.88
-46.54
-50.79
-51.39
-47.60
-39.44
-27.88
-14.58
-1.38
10.20
19.33
25.88
30.11
32.32
32.61
30.93
27.37
22.36
16.77
11.68
7.96
5.92
5.25
5.09
4.53
3.01
0.47
-2.64
-5.70
-8.24
-10.24
-12.14
-14.72
-18.84
-25.08
-33.52
-43.50
-53.61
-61.99
-66.80
-66.71
-61.42
-51.86
-39.87
-27.69
-17.26
-9.68
-4.95
-2.07
0.59
4.80
11.85
22.01
34.37
47.01
57.69
64.61
66.98
65.14
60.13
52.96
44.26
34.27
23.19
11.69
0.98
-7.61
-13.33
-16.54
-18.66
-21.53
-26.57
-34.13
-43.24
-52.07
-58.49
-60.81
-58.13
-50.56
-39.09
-25.26
-10.84
2.58
13.97
22.86
29.28
33.47
35.65
35.91
34.33
31.15
26.89
22.31
18.21
15.17
13.44
12.83
12.89
13.01
12.63
11.35
9.03
5.85
2.16
-1.66
-5.32
-8.80
-12.36
-16.40
-21.31
-27.21
-33.68
-39.74
-44.03
-45.11
-41.96
-34.39
-23.13
-9.65
4.30
17.14
27.84
35.89
41.20
43.82
43.87
41.56
37.31
31.82
26.10
21.18
17.87
16.45
16.62
17.56
18.27
17.91
16.15
13.21
9.74
6.43
3.73
1.61
-0.32
-2.59
-5.60
-9.55
-14.37
-19.88
-25.77
-31.51
-36.18
-38.55
-37.28
-31.51
-21.23
-7.54
7.65
22.21
34.43
43.43
49.16
52.17
53.06
52.32
50.23
46.95
42.71
37.86
32.89
28.20
24.00
20.31
16.99
13.86
10.84
7.87
5.01
2.29
-0.27
-2.71
-5.10
-7.60
-10.36
-13.51
-17.13
-21.26
-25.93
-31.18
-36.95
-42.83
-47.95
-51.00
-50.53
-45.56
-36.08
-23.14
-8.62
5.44
17.51
26.90
33.61
38.07
40.62
41.46
40.66
38.40
35.13
31.50
28.21
25.72
24.16
23.34
22.93
22.55
21.98
21.08
19.76
17.96
15.67
12.95
9.94
6.84
3.80
0.87
-1.97
-4.86
-8.05
-11.74
-16.08
-20.99
-26.02
-30.26
-32.52
-31.64
-26.94
-18.58
-7.63
4.24
15.31
24.23
30.42
33.91
35.10
34.43
32.16
28.49
23.71
18.32
13.02
8.50
5.21
3.19
2.15
1.59
1.01
0.09
-1.32
-3.18
-5.31
-7.53
-9.70
-11.85
-14.14
-16.79
-20.00
-23.83
-28.24
-33.17
-38.60
-44.37
-50.05
-54.72
-57.10
-55.87
-50.19
-40.14
-26.82
-11.99
2.48
15.11
25.16
32.52
37.41
40.14
40.93
39.97
37.56
34.26
30.87
28.26
26.97
27.13
28.30
29.72
30.69
30.80
29.96
28.24
25.69
22.14
17.40
11.42
4.49
-2.91
-10.26
-17.37
-24.44
-31.89
-40.05
-48.81
-57.41
-64.72
-69.50
-70.89
-68.70
-63.44
-56.00
-47.44
-38.56
-29.80
-21.38
-13.44
-6.34
-0.61
3.30
5.23
5.43
4.56
3.37
2.49
2.27
2.73
3.66
4.66
5.35
5.44
4.89
3.93
2.94
2.22
1.79
1.30
0.22
-1.93
-5.30
-9.76
-14.90
-20.23
-25.19
-29.11
-31.19
-30.61
-26.82
-19.85
-10.45
0.07
10.20
18.76
25.06
28.96
30.68
30.57
28.98
26.20
22.54
18.38
14.24
10.63
8.00
6.53
5.96
5.68
4.94
3.19
0.28
-3.38
-7.07
-10.16
-12.39
-14.06
-15.85
-18.46
-22.32
-27.47
-33.54
-39.89
-45.71
-50.06
-51.90
-50.36
-45.01
-36.12
-24.73
-12.35
-0.55
9.54
17.45
23.23
27.20
29.63
30.57
29.98
27.96
24.83
21.18
17.66
14.81
12.85
11.69
11.03
10.41
9.41
7.71
5.23
2.11
-1.31
-4.64
-7.61
-10.27
-12.94
-16.15
-20.37
-25.73
-31.77
-37.56
-41.81
-43.29
-41.14
-35.21
-26.03
-14.72
-2.73
8.60
18.10
25.07
29.26
30.82
30.22
28.15
25.31
22.25
19.34
16.76
14.56
12.79
11.46
10.48
9.67
8.73
7.38
5.42
2.83
-0.25
-3.53
-6.73
-9.66
-12.26
-14.73
-17.49
-21.07
-25.89
-31.91
-38.36
-43.84
-46.62
-45.37
-39.68
-30.22
-18.52
-6.38
4.79
14.25
21.82
27.64
31.78
34.23
34.89
33.83
31.40
28.15
24.74
21.65
19.11
17.04
15.10
12.83
9.93
6.33
2.24
-1.92
-5.80
-9.18
-12.16
-15.02
-18.04
-21.39
-25.10
-29.18
-33.63
-38.39
-43.12
-47.00
-48.74
-46.92
-40.55
-29.56
-14.98
1.26
16.91
30.05
39.49
44.90
46.64
45.38
41.84
36.61
30.24
23.30
16.60
11.01
7.32
5.87
6.29
7.54
8.29
7.44
4.64
0.40
-4.21
-8.23
-11.27
-13.65
-16.17
-19.62
-24.43
-30.60
-37.78
-45.37
-52.56
-58.26
-61.18
-60.05
-54.16
-43.80
-30.25
-15.54
-1.67
9.91
18.62
24.59
28.32
30.30
30.91
30.47
29.30
27.85
26.52
25.60
25.15
25.02
24.99
24.82
24.28
23.14
21.25
18.56
15.20
11.45
7.64
3.97
0.46
-3.11
-7.08
-11.67
-16.93
-22.66
-28.37
-33.37
-36.75
-37.53
-34.88
-28.40
-18.39
-6.01
6.98
18.68
27.59
33.00
35.11
34.73
32.82
30.15
27.07
23.70
20.12
16.48
13.06
10.07
7.46
4.95
2.14
-1.10
-4.36
-6.76
-7.26
-5.26
-1.02
4.20
8.52
10.05
7.57
0.85
-9.42
-22.05
-35.61
-48.66
-59.68
-67.07
-69.36
-65.67
-56.18
-42.20
-25.86
-9.39
5.52
17.99
27.88
35.34
40.46
43.19
43.61
42.09
39.37
36.39
33.94
32.34
31.47
30.89
30.10
28.78
26.90
24.63
22.22
19.85
17.60
15.39
13.05
10.36
7.25
3.70
-0.22
-4.41
-8.88
-13.73
-19.04
-24.85
-31.00
-37.04
-42.15
-45.19
-44.89
-40.04
-29.95
-14.64
4.90
26.74
48.19
66.27
78.37
82.87
79.54
69.55
55.12
38.81
22.87
8.74
-2.95
-12.16
-18.99
-23.41
-25.24
-24.37
-21.00
-15.69
-9.30
-2.93
2.23
4.91
3.92
-1.55
-11.48
-24.67
-38.65
-50.22
-56.42
-55.62
-48.03
-35.56
-21.02
-7.12
4.24
12.20
16.65
17.79
15.83
11.03
3.94
-4.43
-12.73
-19.64
-24.43
-27.14
-28.70
-30.48
-33.65
-38.49
-44.29
-49.64
-52.98
-53.33
-50.33
-44.52
-37.14
-29.45
-22.21
-15.47
-9.01
-2.67
3.27
8.61
12.78
14.91
14.40
11.51
7.41
3.50
1.14
1.29
5.23
13.30
24.55
37.12
49.35
60.53
70.44
79.46
88.24
98.51
111.25
125.81
140.11
151.79
158.99
160.05
154.06
136.27
107.54
75.10
47.47
27.33
10.34
-7.58
-28.91
-51.80
-73.43
-89.67
-97.53
-96.74
-89.48
-78.72
-66.75
-55.13
-44.28
-33.93
-22.84
-10.39
2.63
14.68
24.76
33.02
40.02
46.20
51.24
54.62
55.15
51.32
42.22
28.46
12.42
-2.74
-14.08
-19.90
-19.66
-14.20
-5.18
5.92
18.58
33.47
51.87
74.85
102.47
133.28
164.10
190.45
207.56
211.93
202.34
180.27
149.26
113.62
76.94
41.05
5.88
-29.96
-67.91
-108.41
-150.25
-190.72
-226.31
-253.76
-270.85
-276.81
-272.37
-259.34
-240.11
-217.31
-193.65
-171.62
-153.09
-138.84
-128.16
-119.09
-109.15
-96.47
-80.73
-63.39
-47.14
-34.83
-28.48
-28.65
-34.55
-44.41
-56.14
-67.79
-77.70
-84.73
-88.34
-88.68
-86.66
-83.72
-81.55
-81.53
-84.38
-89.74
-96.22
-101.67
-103.70
-100.32
-90.59
-74.96
-55.11
-33.52
-12.74
5.24
19.19
28.62
33.51
34.20
31.52
27.03
22.91
21.56
24.67
32.52
43.65
55.41
65.04
70.75
72.32
70.86
68.11
65.53
63.82
62.93
62.37
61.65
60.37
58.17
54.63
49.26
41.68
32.03
21.17
10.67
2.49
-1.73
-1.29
3.20
9.95
16.48
20.51
20.61
16.51
9.03
-0.36
-9.89
-17.86
-22.73
-23.32
-18.97
-9.87
2.93
17.64
32.19
44.78
54.28
60.31
63.11
63.27
61.35
57.87
53.20
47.67
41.57
35.18
28.73
22.35
15.95
9.12
1.25
-8.16
-18.89
-29.62
-37.98
-41.16
-36.95
-24.72
-5.88
16.56
38.80
57.53
70.72
77.83
79.53
77.11
71.86
64.82
56.80
48.51
40.69
34.17
29.58
27.12
26.29
26.13
25.65
24.25
22.00
19.50
17.60
16.81
17.14
18.03
18.66
18.35
16.60
13.05
7.46
-0.12
-9.19
-18.55
-26.51
-31.21
-30.94
-24.98
-13.93
0.51
16.12
30.74
42.86
51.60
56.64
58.64
58.17
55.42
50.40
43.42
35.03
26.34
18.38
11.83
8.34
8.75
12.68
18.92
26.33
33.70
40.83
47.45
53.08
59.25
66.72
74.70
81.64
86.62
89.24
90.92
92.90
95.55
101.12
110.11
120.57
129.52
135.15
136.89
137.37
139.55
128.53
98.36
54.11
6.61
-37.01
-69.40
-96.08
-119.51
-139.75
-156.23
-166.67
-169.61
-166.42
-160.17
-153.21
-147.20
-141.25
-134.62
-127.48
-118.70
-108.18
-97.37
-88.36
-82.69
-81.94
-86.17
-95.17
-107.89
-120.64
-129.09
-129.97
-121.97
-105.76
-84.02
-59.62
-35.53
-14.23
3.13
15.70
22.34
21.99
14.94
3.33
-8.37
-14.92
-12.22
1.27
23.59
49.94
74.70
93.67
105.25
110.46
111.57
110.53
108.38
105.31
101.37
96.84
92.17
87.33
81.38
72.74
59.89
42.36
21.12
-1.52
-22.49
-38.92
-48.85
-51.64
-48.00
-39.62
-28.59
-16.74
-5.17
5.87
16.71
27.53
37.89
46.45
51.29
50.72
44.18
32.97
20.16
9.65
4.72
7.03
16.15
29.92
45.49
60.26
72.57
81.69
87.32
88.95
86.04
78.47
66.90
52.86
38.46
25.77
16.17
9.91
5.44
0.75
-5.52
-13.64
-22.93
-32.27
-40.49
-46.82
-51.20
-55.55
-61.69
-70.14
-80.01
-89.79
-98.14
-104.00
-106.78
-106.41
-105.45
-106.03
-108.56
-112.00
-115.41
-118.71
-122.32
-126.43
-130.77
-137.44
-147.51
-160.09
-173.19
-185.45
-196.59
-206.34
-213.44
-199.32
-155.24
-88.26
-16.82
43.21
85.09
109.13
118.91
118.73
112.60
100.32
82.33
61.80
44.04
33.61
32.28
38.76
49.69
61.35
67.34
63.56
50.10
30.81
10.94
-4.95
-13.93
-14.96
-8.95
0.15
8.26
12.70
12.84
9.61
4.95
1.36
1.19
5.87
14.68
25.98
37.79
48.33
55.86
58.79
56.14
47.91
35.41
20.91
7.55
-1.43
-3.89
0.48
9.98
21.53
31.85
38.51
40.61
38.85
35.09
31.41
29.43
29.79
32.10
35.21
37.59
37.83
35.04
29.12
20.83
11.71
3.71
-1.33
-2.22
1.32
8.44
17.49
26.47
33.51
37.34
37.43
33.91
27.42
18.67
8.50
-2.26
-12.70
-21.89
-29.07
-33.92
-36.75
-38.41
-39.96
-42.25
-45.54
-49.50
-53.42
-56.65
-58.92
-60.43
-61.72
-63.48
-66.14
-69.65
-73.31
-75.93
-76.02
-72.44
-64.70
-53.31
-39.60
-25.29
-12.01
-0.84
7.72
13.67
17.35
19.21
19.80
19.66
19.19
18.48
17.18
14.64
10.23
3.79
-3.91
-11.22
-16.09
-16.81
-12.76
-4.77
5.13
14.36
20.67
22.84
20.98
16.37
11.01
7.09
6.49
10.39
19.11
32.06
47.81
64.34
79.47
91.27
98.44
100.64
98.57
93.89
88.70
84.94
83.71
84.94
87.47
89.51
89.39
86.09
79.52
70.31
59.54
48.26
37.29
27.12
17.95
9.88
2.94
-2.77
-7.32
-10.95
-14.18
-17.58
-21.52
-25.84
-29.75
-32.08
-31.66
-27.91
-21.07
-12.19
-2.81
5.52
11.64
15.02
15.79
14.57
12.25
9.68
7.47
5.89
4.93
4.32
3.84
3.20
2.19
0.54
-1.90
-5.16
-8.95
-12.72
-15.82
-17.76
-18.43
-18.14
-17.58
-17.49
-18.51
-20.93
-24.60
-28.89
-32.83
-35.31
-35.42
-32.69
-27.28
-19.96
-11.79
-3.82
3.14
8.68
12.69
15.23
16.37
16.16
14.68
12.08
8.67
4.91
1.35
-1.60
-3.76
-5.31
-6.71
-8.45
-10.84
-13.88
-17.28
-20.53
-23.22
-25.11
-26.29
-27.08
-27.96
-29.44
-31.77
-34.88
-38.23
-40.88
-41.73
-39.84
-34.82
-27.02
-17.41
-7.33
1.88
9.34
14.67
17.96
19.55
19.85
19.19
17.85
16.14
14.40
12.99
12.12
11.79
11.73
11.56
10.93
9.71
7.94
5.76
3.36
0.89
-1.56
-3.83
-5.77
-7.30
-8.50
-9.64
-11.14
-13.42
-16.64
-20.54
-24.37
-27.11
-27.73
-25.55
-20.49
-13.16
-4.66
3.74
10.98
16.48
20.15
22.21
23.04
22.90
21.94
20.21
17.84
15.06
12.28
9.93
8.38
7.72
7.71
7.90
7.75
6.91
5.26
2.98
0.34
-2.36
-4.94
-7.33
-9.48
-11.47
-13.46
-15.75
-18.72
-22.58
-27.22
-32.01
-35.93
-37.88
-37.10
-33.50
-27.69
-20.83
-14.22
-8.82
-4.96
-2.33
-0.15
2.44
6.02
10.67
16.06
21.64
26.91
31.60
35.69
39.25
42.30
44.74
46.31
46.73
45.81
43.52
40.05
35.72
30.92
25.99
21.06
16.12
11.04
5.74
0.22
-5.40
-11.00
-16.51
-21.80
-26.61
-30.39
-32.33
-31.68
-28.14
-22.08
-14.53
-6.80
-0.07
5.01
8.33
10.12
10.69
10.27
8.98
6.99
4.56
2.09
-0.05
-1.61
-2.56
-3.00
-3.12
-3.06
-2.93
-2.79
-2.77
-3.01
-3.68
-4.85
-6.45
-8.29
-10.08
-11.65
-13.01
-14.37
-16.04
-18.25
-20.95
-23.77
-26.06
-27.04
-26.12
-22.99
-17.86
-11.36
-4.35
2.26
7.83
12.04
14.90
16.57
17.21
16.90
15.70
13.74
11.33
8.91
6.86
5.40
4.45
3.77
3.07
2.22
1.25
0.33
-0.42
-0.98
-1.44
-1.95
-2.62
-3.51
-4.57
-5.75
-7.04
-8.49
-10.22
-12.32
-14.72
-17.06
-18.73
-19.00
-17.32
-13.58
-8.21
-2.04
4.00
9.15
12.98
15.35
16.31
16.01
14.61
12.41
9.77
7.13
4.92
3.33
2.37
1.85
1.53
1.24
0.89
0.48
0.02
-0.52
-1.26
-2.36
-3.99
-6.27
-9.20
-12.59
-16.14
-19.50
-22.37
-24.72
-26.80
-29.07
-31.92
-35.44
-39.18
-42.23
-43.60
-42.60
-39.17
-33.88
-27.67
-21.42
-15.69
-10.62
-6.06
-1.86
2.06
5.58
8.58
10.97
12.81
14.26
15.49
16.61
17.60
18.33
18.67
18.56
18.00
17.09
15.99
14.82
13.65
12.48
11.21
9.73
7.98
5.97
3.81
1.64
-0.48
-2.55
-4.63
-6.79
-8.89
-10.63
-11.50
-11.03
-8.87
-5.05
0.03
5.70
11.24
16.11
20.03
22.96
24.93
25.94
25.91
24.79
22.66
19.76
16.50
13.24
10.26
7.64
5.30
3.05
0.68
-2.01
-5.16
-8.79
-12.79
-16.88
-20.76
-24.11
-26.80
-28.92
-30.73
-32.62
-34.99
-38.09
-41.92
-46.15
-50.15
-53.15
-54.46
-53.58
-50.36
-45.02
-38.12
-30.49
-23.10
-16.81
-12.20
-9.46
-8.34
-8.37
-9.07
-10.10
-11.34
-12.86
-14.73
-16.84
-18.78
-19.83
-19.15
-16.01
-10.07
-1.63
8.39
18.64
27.78
34.90
39.71
42.43
43.56
43.54
42.52
40.51
37.47
33.60
29.42
25.66
23.11
22.38
23.69
26.83
31.22
36.10
40.70
44.54
47.41
49.30
50.26
50.15
48.65
45.45
40.48
34.15
27.29
20.86
15.65
11.97
9.60
8.06
6.77
5.36
3.67
1.78
-0.12
-1.84
-3.23
-4.23
-4.84
-5.22
-5.68
-6.73
-8.96
-12.88
-18.65
-25.89
-33.61
-40.42
-44.86
-45.84
-42.97
-36.65
-27.94
-18.27
-9.09
-1.55
3.65
6.33
6.74
5.49
3.31
0.79
-1.68
-3.98
-6.08
-7.93
-9.32
-10.05
-10.00
-9.39
-8.71
-8.53
-9.27
-10.98
-13.27
-15.58
-17.41
-18.69
-19.68
-20.92
-22.94
-26.08
-30.26
-34.99
-39.40
-42.35
-42.78
-39.92
-33.58
-24.22
-12.95
-1.18
9.68
18.59
25.06
29.10
31.07
31.34
30.21
27.86
24.56
20.75
17.04
14.08
12.19
11.31
10.96
10.55
9.62
8.05
5.98
3.76
1.70
-0.07
-1.66
-3.37
-5.64
-8.80
-13.04
-18.29
-24.14
-29.90
-34.70
-37.59
-37.73
-34.59
-28.13
-18.91
-7.98
3.30
13.66
22.19
28.47
32.57
34.77
35.47
34.95
33.49
31.28
28.62
25.85
23.34
21.38
20.01
19.07
18.21
17.07
15.41
13.20
10.56
7.68
4.71
1.72
-1.25
-4.15
-7.00
-9.98
-13.47
-17.84
-23.18
-29.05
-34.29
-37.28
-36.44
-30.84
-20.61
-7.10
7.51
20.83
30.99
37.13
39.59
39.63
38.78
38.28
38.59
39.41
40.01
39.80
38.81
37.84
38.14
40.99
47.02
55.92
66.26
75.57
80.66
78.14
65.14
40.36
4.84
-37.65
-81.27
-119.52
-147.09
-161.35
-162.70
-153.94
-138.70
-120.09
-99.88
-78.74
-56.99
-35.33
-15.13
2.11
15.28
24.33
30.14
34.04
37.00
39.22
40.22
39.34
36.36
31.89
27.24
23.84
22.62
23.55
25.75
27.89
28.82
28.04
25.77
22.76
19.82
17.43
15.56
13.84
11.74
8.89
5.07
0.22
-5.64
-12.38
-19.51
-26.13
-30.97
-32.76
-30.72
-24.95
-16.41
-6.59
3.09
11.66
18.76
24.43
28.78
31.71
33.01
32.49
30.29
26.94
23.28
20.15
18.05
17.04
16.70
16.44
15.77
14.44
12.56
10.42
8.31
6.35
4.49
2.52
0.24
-2.40
-5.37
-8.67
-12.37
-16.65
-21.53
-26.62
-31.08
-33.68
-33.28
-29.31
-22.00
-12.43
-2.13
7.47
15.40
21.28
25.21
27.40
28.10
27.47
25.67
23.03
20.07
17.35
15.36
14.27
13.89
13.75
13.36
12.39
10.78
8.70
6.44
4.21
2.05
-0.13
-2.50
-5.16
-8.22
-11.67
-15.56
-19.89
-24.57
-29.28
-33.32
-35.70
-35.41
-31.77
-24.80
-15.33
-4.79
5.25
13.52
19.37
22.75
23.98
23.46
21.54
18.55
14.81
10.80
7.06
4.04
2.01
0.90
0.41
0.11
-0.38
-1.25
-2.38
-3.39
-3.64
-2.51
0.35
4.85
10.39
15.90
20.16
22.04
20.76
16.06
8.32
-1.39
-11.42
-19.84
-24.84
-25.25
-20.84
-12.39
-1.47
10.03
20.38
28.36
33.41
35.58
35.42
33.70
31.29
28.93
27.06
25.82
25.06
24.35
23.30
21.59
19.12
16.00
12.48
8.85
5.34
2.06
-0.99
-3.89
-6.67
-9.45
-12.24
-15.11
-18.10
-21.37
-25.06
-29.24
-33.78
-38.16
-41.55
-42.96
-41.56
-37.08
-29.89
-20.93
-11.45
-2.55
5.01
10.94
15.29
18.15
19.56
19.45
17.84
14.98
11.44
7.98
5.29
3.78
3.42
3.84
4.52
4.96
4.81
3.93
2.33
0.15
-2.40
-5.02
-7.47
-9.61
-11.47
-13.28
-15.32
-17.84
-20.94
-24.48
-28.04
-30.97
-32.43
-31.57
-27.79
-20.96
-11.63
-0.89
9.78
18.91
25.42
28.82
29.27
27.42
24.12
20.16
16.16
12.47
9.33
6.88
5.22
4.32
4.01
3.92
3.60
2.61
0.73
-1.88
-4.77
-7.32
-9.11
-10.15
-10.88
-12.03
-14.17
-17.46
-21.56
-25.85
-29.74
-32.78
-34.60
-34.79
-32.80
-28.17
-20.85
-11.47
-1.29
8.15
15.69
20.81
23.67
24.75
24.49
23.11
20.72
17.51
13.92
10.51
7.78
5.96
4.92
4.30
3.71
2.82
1.51
-0.19
-2.13
-4.13
-5.97
-7.55
-8.89
-10.21
-11.80
-13.97
-16.92
-20.58
-24.70
-28.79
-32.19
-34.09
-33.75
-30.69
-24.95
-17.15
-8.34
0.28
7.72
13.42
17.24
19.32
19.86
19.04
17.01
14.13
10.95
8.25
6.76
6.95
8.80
11.76
14.93
17.36
18.28
17.40
14.82
11.03
6.64
2.27
-1.74
-5.22
-8.30
-11.21
-14.19
-17.40
-20.91
-24.63
-28.30
-31.40
-33.14
-32.64
-29.28
-22.95
-14.30
-4.57
4.81
12.66
18.35
21.82
23.36
23.38
22.19
20.00
17.03
13.55
9.92
6.63
4.13
2.75
2.51
3.14
4.05
4.65
4.51
3.55
1.99
0.20
-1.56
-3.25
-4.96
-6.93
-9.41
-12.61
-16.72
-21.71
-27.23
-32.51
-36.36
-37.51
-35.07
-28.84
-19.52
-8.46
2.77
12.80
20.81
26.48
29.88
31.14
30.47
28.03
24.20
19.50
14.63
10.31
7.03
4.93
3.71
2.83
1.74
0.05
-2.25
-4.84
-7.26
-9.12
-10.30
-11.04
-11.82
-13.17
-15.48
-18.86
-23.18
-28.06
-32.91
-36.89
-39.02
-38.41
-34.54
-27.58
-18.35
-8.21
1.39
9.28
14.89
18.27
19.85
20.23
19.89
19.09
17.88
16.28
14.37
12.42
10.76
9.66
9.13
8.85
8.26
6.84
4.39
1.13
-2.38
-5.54
-8.04
-9.91
-11.57
-13.54
-16.26
-20.00
-24.72
-30.09
-35.39
-39.58
-41.47
-40.05
-34.89
-26.37
-15.71
-4.50
5.75
14.01
19.93
23.67
25.60
26.03
25.16
23.03
19.78
15.62
10.97
6.40
2.46
-0.35
-1.87
-2.34
-2.38
-2.81
-4.32
-7.20
-11.25
-15.89
-20.33
-23.76
-25.46
-24.92
-21.94
-16.90
-10.74
-4.71
0.15
3.67
6.68
10.70
17.18
26.60
38.22
50.31
60.96
68.83
73.57
75.56
75.42
73.53
69.90
64.44
57.34
49.21
41.04
33.73
27.77
23.02
18.90
14.75
10.15
5.06
-0.27
-5.54
-10.55
-15.25
-19.69
-23.93
-28.01
-31.93
-35.73
-39.52
-43.37
-47.27
-51.01
-54.13
-55.89
-55.42
-51.93
-45.03
-35.02
-22.86
-9.93
2.34
12.90
21.18
27.02
30.49
31.71
30.84
28.16
24.17
19.61
15.27
11.87
9.70
8.70
8.43
8.29
7.80
6.69
5.06
3.21
1.45
-0.12
-1.71
-3.69
-6.40
-9.95
-14.21
-18.88
-23.75
-28.54
-32.88
-36.11
-37.32
-35.63
-30.62
-22.65
-12.85
-2.68
6.58
14.18
20.00
24.20
26.88
27.98
27.26
24.71
20.72
16.12
11.95
9.06
7.83
8.02
8.96
9.77
9.79
8.77
6.84
4.44
2.00
-0.21
-2.18
-4.11
-6.26
-8.88
-12.17
-16.23
-20.99
-26.23
-31.42
-35.77
-38.30
-38.03
-34.30
-27.03
-16.84
-4.96
7.07
17.79
26.18
31.90
35.20
36.69
36.94
36.31
34.84
32.42
29.08
25.13
21.13
17.72
15.37
14.10
13.53
13.04
12.07
10.38
8.07
5.48
2.93
0.53
-1.87
-4.53
-7.72
-11.58
-16.04
-20.98
-26.12
-31.04
-35.10
-37.41
-37.01
-33.26
-26.09
-16.23
-5.02
5.96
15.32
22.22
26.46
28.30
28.20
26.70
24.30
21.46
18.65
16.26
14.50
13.29
12.34
11.21
9.54
7.24
4.45
1.51
-1.23
-3.52
-5.35
-6.89
-8.45
-10.38
-12.98
-16.43
-20.73
-25.61
-30.55
-34.79
-37.46
-37.80
-35.34
-30.09
-22.48
-13.35
-3.70
5.48
13.43
19.65
23.95
26.33
27.00
26.23
24.40
21.93
19.20
16.51
14.06
11.91
10.03
8.32
6.69
5.06
3.37
1.58
-0.40
-2.62
-5.12
-7.81
-10.58
-13.22
-15.68
-18.05
-20.69
-24.04
-28.29
-33.08
-37.41
-39.82
-38.95
-34.09
-25.57
-14.68
-3.23
7.10
15.18
20.68
23.85
25.22
25.21
24.08
22.00
19.28
16.38
13.86
12.12
11.26
10.97
10.63
9.65
7.66
4.65
1.00
-2.81
-6.33
-9.37
-11.95
-14.31
-16.68
-19.24
-22.07
-25.08
-28.10
-30.80
-32.74
-33.36
-32.14
-28.71
-23.00
-15.43
-6.78
1.96
9.91
16.52
21.63
25.36
27.91
29.33
29.52
28.31
25.63
21.71
17.12
12.69
9.23
7.26
6.77
7.25
7.90
7.96
7.02
5.09
2.54
-0.26
-3.01
-5.58
-7.95
-10.05
-11.83
-13.27
-14.39
-15.18
-15.44
-14.60
-11.76
-5.95
3.50
16.63
32.76
50.54
68.26
84.20
96.89
105.34
109.15
108.48
103.97
96.49
86.97
76.30
65.35
55.05
46.35
39.99
36.27
34.77
34.41
33.79
31.70
27.63
21.99
15.90
10.67
7.32
6.18
6.85
8.53
10.41
12.04
13.50
15.29
18.19
23.01
30.42
40.85
54.27
69.92
86.07
99.93
108.12
107.48
96.12
74.02
43.12
6.64
-31.99
-70.06
-106.00
-139.15
-169.28
-196.06
-218.91
-237.18
-250.37
-258.40
-261.45
-259.81
-253.70
-243.14
-228.25
-209.45
-187.65
-164.27
-141.03
-119.59
-101.27
-86.81
-76.19
-68.63
-62.71
-56.66
-48.82
-38.18
-24.67
-9.20
6.64
21.28
33.61
43.23
50.40
55.56
58.97
60.57
60.09
57.46
53.06
47.81
42.83
39.08
36.98
36.27
36.23
36.04
35.06
33.13
30.39
27.12
23.55
19.75
15.60
11.01
5.95
0.45
-5.50
-12.00
-19.09
-26.59
-33.81
-39.47
-42.07
-40.36
-33.95
-23.58
-10.92
2.06
13.76
23.36
30.79
36.36
40.23
42.29
42.23
39.95
35.87
30.96
26.38
23.11
21.50
21.24
21.67
22.04
21.95
21.38
20.58
19.84
19.30
18.84
18.16
16.94
14.98
12.35
9.24
5.89
2.42
-1.14
-4.66
-7.72
-9.52
-9.11
-5.77
0.57
9.13
18.55
27.39
34.59
39.71
42.85
44.31
44.32
42.87
39.87
35.39
29.82
23.90
18.52
14.44
12.04
11.29
11.76
12.87
14.04
14.79
14.84
14.09
12.55
10.37
7.67
4.48
0.78
-3.63
-8.94
-15.23
-22.31
-29.63
-36.28
-41.22
-43.48
-42.49
-38.27
-31.41
-22.86
-13.68
-4.72
3.50
10.74
16.87
21.78
25.35
27.46
28.09
27.30
25.17
21.91
17.74
12.94
7.72
2.12
-3.94
-10.32
-16.36
-20.69
-21.55
-17.46
-8.07
5.47
20.73
34.82
45.45
51.62
53.76
53.23
51.60
50.10
49.31
49.27
49.66
50.08
50.18
49.70
48.47
46.33
43.05
38.47
32.54
25.49
17.86
10.38
3.70
-1.71
-5.73
-8.59
-10.73
-12.60
-14.53
-16.59
-18.63
-20.37
-21.61
-22.38
-22.97
-23.82
-25.34
-27.73
-31.00
-34.98
-39.47
-44.17
-48.59
-51.97
-53.29
-51.59
-46.34
-37.75
-26.83
-15.00
-3.69
6.12
14.07
20.12
24.39
26.89
27.56
26.41
23.80
20.38
17.01
14.44
13.01
12.48
12.21
11.45
9.70
6.91
3.52
0.20
-2.43
-4.13
-5.14
-6.05
-7.62
-10.52
-15.15
-21.55
-29.30
-37.46
-44.65
-49.20
-49.72
-45.53
-36.98
-25.35
-12.38
0.28
11.57
20.95
28.26
33.30
35.74
35.32
32.16
26.96
20.88
15.21
10.82
8.01
6.54
5.92
5.68
5.48
5.21
4.76
4.09
3.13
1.78
-0.07
-2.58
-5.98
-10.46
-16.06
-22.50
-29.07
-34.80
-38.60
-39.61
-37.42
-32.15
-24.36
-14.97
-5.00
4.59
13.06
19.91
24.84
27.75
28.67
27.77
25.33
21.84
17.92
14.24
11.39
9.71
9.15
9.31
9.54
9.26
8.13
6.18
3.73
1.20
-1.11
-3.14
-5.18
-7.71
-11.22
-15.98
-21.80
-27.89
-32.96
-35.55
-34.49
-29.34
-20.69
-9.91
1.14
10.69
17.49
20.93
20.98
18.07
13.02
6.96
1.23
-2.81
-4.19
-2.59
1.49
6.87
12.17
16.20
18.36
18.69
17.66
15.95
14.09
12.39
10.82
9.18
7.14
4.33
0.52
-4.32
-9.94
-15.76
-20.92
-24.33
-24.97
-22.10
-15.57
-5.90
5.78
18.09
29.76
39.90
47.98
53.72
56.82
56.92
53.75
47.34
38.30
27.74
16.99
7.26
-0.65
-6.44
-10.20
-12.27
-13.04
-12.90
-12.19
-11.22
-10.33
-9.82
-10.04
-11.32
-13.99
-18.25
-24.04
-30.94
-38.05
-44.10
-47.67
-47.67
-43.65
-36.10
-26.25
-15.72
-5.93
2.27
8.65
13.34
16.52
18.18
18.22
16.69
13.98
10.79
7.87
5.76
4.53
3.86
3.23
2.19
0.58
-1.48
-3.65
-5.60
-7.17
-8.39
-9.51
-10.88
-12.82
-15.54
-19.09
-23.32
-27.93
-32.45
-36.16
-38.18
-37.58
-33.71
-26.51
-16.62
-5.28
6.02
15.99
23.81
29.20
32.27
33.32
32.63
30.43
26.99
22.71
18.18
14.04
10.80
8.70
7.60
7.07
6.59
5.79
4.51
2.86
1.07
-0.64
-2.23
-3.79
-5.60
-8.01
-11.43
-16.18
-22.34
-29.65
-37.33
-44.19
-48.92
-50.37
-47.96
-41.74
-32.33
-20.70
-7.92
4.97
17.01
27.31
35.10
39.87
41.50
40.31
36.98
32.39
27.43
22.82
19.00
16.11
14.02
12.42
10.92
9.18
7.00
4.41
1.60
-1.19
-3.81
-6.27
-8.82
-11.76
-15.37
-19.87
-25.26
-31.35
-37.60
-43.18
-47.02
-48.12
-45.85
-40.27
-32.15
-22.83
-13.77
-6.12
-0.52
2.86
4.10
3.38
0.88
-3.10
-8.09
-13.29
-17.88
-21.16
-22.69
-22.40
-20.65
-17.99
-15.24
-13.24
-12.78
-14.41
-18.25
-23.98
-30.77
-37.31
-41.81
-42.32
-37.09
-25.30
-7.60
13.82
35.81
55.26
70.23
80.65
87.91
94.06
100.65
108.06
115.58
121.94
125.97
127.06
125.13
120.35
112.95
103.13
91.12
77.35
62.51
47.53
33.37
20.90
10.68
2.87
-2.90
-7.34
-11.39
-15.80
-20.89
-26.42
-31.74
-36.18
-39.35
-41.32
-42.47
-43.28
-44.12
-45.13
-46.30
-47.45
-48.20
-47.96
-45.91
-41.28
-33.64
-23.14
-10.63
2.57
15.06
25.61
33.35
37.74
38.45
35.38
28.68
18.77
6.28
-8.03
-23.46
-39.35
-55.04
-69.73
-82.52
-92.50
-99.05
-102.11
-102.21
-100.38
-97.78
-95.29
-93.33
-91.84
-90.47
-88.90
-87.08
-85.29
-83.99
-83.61
-84.19
-85.21
-85.66
-84.24
-79.91
-72.24
-61.64
-49.29
-36.75
-25.49
-16.66
-10.86
-8.23
-8.33
-10.02
-11.37
-9.95
-3.44
9.56
28.94
53.12
79.59
105.79
129.75
150.40
167.35
180.59
190.25
196.48
199.45
199.23
195.75
188.70
177.79
163.02
144.91
124.57
103.32
82.36
62.54
44.49
28.80
16.19
7.42
2.88
2.28
4.44
7.66
10.16
10.77
9.16
5.77
1.37
-3.41
-8.34
-13.57
-19.28
-25.48
-31.82
-37.73
-42.68
-46.39
-49.03
-51.07
-53.11
-55.49
-58.17
-60.79
-62.82
-63.89
-64.01
-63.56
-63.19
-63.62
-65.31
-68.38
-72.53
-77.06
-80.95
-83.05
-82.29
-77.87
-69.66
-58.25
-44.91
-31.24
-18.74
-8.40
-0.58
4.95
8.65
10.95
12.07
12.07
11.01
9.12
6.88
4.89
3.69
3.50
4.10
4.92
5.27
4.67
3.07
0.92
-1.13
-2.55
-3.27
-3.67
-4.37
-5.94
-8.66
-12.44
-16.89
-21.42
-25.22
-27.38
-26.92
-23.08
-15.58
-4.84
8.07
21.62
34.26
44.69
52.22
56.72
58.58
58.45
57.07
55.03
52.69
50.12
47.21
43.69
39.22
33.47
26.22
17.51
7.77
-2.15
-11.23
-18.60
-23.96
-27.66
-30.58
-33.79
-38.13
-44.00
-51.25
-59.31
-67.31
-74.18
-78.78
-80.07
-77.36
-70.53
-60.17
-47.44
-33.80
-20.62
-8.97
0.55
7.68
12.40
14.81
15.10
13.60
10.80
7.34
3.94
1.22
-0.49
-1.24
-1.47
-1.79
-2.72
-4.53
-7.10
-10.07
-13.11
-16.04
-19.01
-22.39
-26.56
-31.72
-37.73
-44.04
-49.76
-53.74
-54.89
-52.33
-45.65
-35.00
-21.16
-5.36
10.85
25.85
38.26
47.20
52.52
54.76
54.94
54.15
53.16
52.25
51.27
50.00
48.37
46.72
45.66
45.88
47.89
51.93
57.94
65.45
73.51
80.56
84.54
83.30
75.32
60.25
39.27
14.80
-10.05
-32.27
-49.55
-60.70
-65.61
-65.14
-60.79
-54.25
-47.00
-40.03
-33.74
-28.17
-23.28
-19.08
-15.69
-13.02
-10.74
-8.31
-5.27
-1.58
2.34
5.69
7.83
8.48
7.90
6.70
5.45
4.37
3.29
1.77
-0.64
-4.22
-8.94
-14.50
-20.32
-25.70
-29.84
-31.90
-31.17
-27.30
-20.36
-11.02
-0.45
9.94
18.82
25.24
28.71
29.26
27.24
23.23
17.96
12.21
6.81
2.48
-0.34
-1.62
-1.80
-1.66
-1.98
-3.30
-5.67
-8.72
-11.90
-14.73
-17.07
-19.18
-21.59
-24.84
-29.29
-34.88
-41.08
-46.94
-51.25
-52.67
-50.04
-42.65
-30.43
-14.15
4.69
24.19
42.43
57.92
69.83
77.92
82.44
83.83
82.64
79.45
74.93
69.74
64.42
59.24
54.11
48.73
42.76
35.99
28.53
20.69
12.94
5.82
-0.25
-5.08
-8.86
-12.15
-15.69
-20.06
-25.48
-31.49
-37.13
-41.19
-42.65
-40.98
-36.29
-29.24
-20.78
-11.83
-3.02
5.26
12.84
19.52
25.02
28.90
30.81
30.68
28.84
25.99
22.95
20.26
18.09
16.23
14.29
11.96
9.24
6.38
3.77
1.69
0.20
-0.92
-2.11
-3.80
-6.38
-10.03
-14.70
-20.08
-25.55
-30.23
-33.11
-33.29
-30.24
-24.01
-15.27
-5.15
5.10
14.43
22.18
28.10
32.12
34.21
34.38
32.73
29.60
25.64
21.61
18.15
15.62
13.86
12.43
10.72
8.28
4.94
0.91
-3.31
-7.21
-10.36
-12.67
-14.34
-15.81
-17.55
-19.86
-22.86
-26.43
-30.36
-34.23
-37.36
-38.83
-37.58
-32.78
-24.23
-12.57
0.79
14.11
25.90
35.28
42.04
46.40
48.62
48.83
47.04
43.33
38.09
32.08
26.18
21.12
17.25
14.48
12.50
10.97
9.69
8.62
7.79
7.10
6.33
5.15
3.26
0.57
-2.72
-6.24
-9.52
-12.31
-14.69
-16.99
-19.63
-22.71
-25.84
-28.07
-28.28
-25.55
-19.66
-11.15
-1.19
8.85
17.81
25.01
30.26
33.61
35.21
35.14
33.57
30.79
27.31
23.76
20.73
18.52
17.07
16.00
14.80
13.03
10.51
7.39
3.99
0.62
-2.56
-5.59
-8.65
-11.92
-15.47
-19.26
-23.19
-27.17
-31.23
-35.41
-39.55
-43.21
-45.50
-45.33
-41.82
-34.70
-24.57
-12.84
-1.23
8.78
16.43
21.70
25.06
26.99
27.70
27.09
25.07
21.80
17.86
14.11
11.34
9.91
9.67
10.05
10.38
10.13
9.19
7.81
6.40
5.25
4.35
3.39
2.01
-0.02
-2.64
-5.58
-8.59
-11.69
-15.11
-19.06
-23.39
-27.41
-30.05
-30.33
-27.87
-23.20
-17.56
-12.43
-8.85
-7.06
-6.52
-6.30
-5.72
-4.63
-3.51
-3.05
-3.73
-5.53
-7.89
-10.12
-11.68
-12.47
-12.75
-12.95
-13.43
-14.33
-15.61
-17.16
-18.84
-20.49
-21.91
-22.87
-23.21
-23.05
-22.75
-22.91
-24.10
-26.56
-30.05
-33.79
-36.68
-37.60
-35.64
-30.38
-21.98
-11.20
0.74
12.40
22.47
30.15
35.24
38.13
39.42
39.61
38.91
37.33
34.86
31.75
28.43
25.39
23.00
21.28
19.99
18.76
17.31
15.48
13.29
10.83
8.20
5.51
2.81
0.16
-2.46
-5.11
-7.92
-11.08
-14.74
-18.90
-23.29
-27.25
-29.85
-30.05
-27.11
-20.87
-11.89
-1.35
9.33
18.86
26.41
31.76
35.13
37.00
37.76
37.69
36.82
35.14
32.66
29.55
26.12
22.69
19.44
16.33
13.13
9.49
5.18
0.18
-5.26
-10.68
-15.61
-19.67
-22.74
-24.95
-26.63
-28.19
-30.07
-32.62
-36.00
-40.08
-44.30
-47.76
-49.31
-48.02
-43.44
-35.87
-26.33
-16.19
-6.75
1.10
7.05
11.24
13.99
15.59
16.18
15.84
14.71
13.05
11.27
9.78
8.82
8.38
8.19
7.88
7.12
5.80
4.03
2.02
-0.04
-2.06
-4.08
-6.20
-8.49
-11.05
-13.92
-17.21
-21.00
-25.25
-29.71
-33.79
-36.62
-37.19
-34.70
-28.86
-20.17
-9.79
0.77
10.15
17.49
22.61
25.79
27.52
28.08
27.52
25.75
22.82
19.08
15.21
11.98
9.91
9.09
9.07
9.12
8.54
6.93
4.36
1.27
-1.80
-4.45
-6.63
-8.52
-10.44
-12.65
-15.26
-18.36
-22.01
-26.21
-30.74
-35.04
-38.21
-39.20
-37.18
-31.85
-23.63
-13.49
-2.66
7.62
16.42
23.18
27.70
30.13
30.79
30.15
28.65
26.62
24.30
21.82
19.37
17.14
15.34
14.09
13.30
12.70
11.93
10.69
8.84
6.45
3.67
0.67
-2.43
-5.61
-8.86
-12.10
-15.31
-18.51
-21.86
-25.59
-29.80
-34.17
-37.85
-39.62
-38.25
-33.02
-24.11
-12.65
-0.38
10.86
19.68
25.45
28.30
28.91
28.08
26.53
24.68
22.74
20.79
18.91
17.22
15.82
14.72
13.79
12.80
11.50
9.77
7.63
5.23
2.80
0.51
-1.62
-3.68
-5.84
-8.27
-11.08
-14.33
-18.01
-22.04
-26.28
-30.43
-33.99
-36.17
-36.11
-33.11
-26.95
-18.06
-7.46
3.46
13.40
21.40
26.99
30.19
31.22
30.39
28.00
24.41
20.05
15.47
11.25
7.86
5.62
4.56
4.45
4.90
5.44
5.58
4.97
3.48
1.24
-1.46
-4.30
-7.04
-9.67
-12.27
-15.07
-18.22
-21.88
-26.13
-30.89
-35.80
-40.08
-42.66
-42.43
-38.63
-31.26
-21.13
-9.63
1.70
11.64
19.51
25.10
28.52
30.02
29.88
28.41
25.90
22.77
19.45
16.40
14.02
12.56
11.99
11.95
11.86
11.14
9.48
6.93
3.91
0.93
-1.70
-4.00
-6.28
-8.87
-11.98
-15.64
-19.79
-24.41
-29.44
-34.65
-39.36
-42.51
-42.87
-39.52
-32.32
-22.04
-10.22
1.37
11.27
18.69
23.56
26.20
27.11
26.66
25.09
22.54
19.26
15.61
12.04
8.86
6.15
3.77
1.54
-0.66
-2.82
-4.77
-6.40
-7.67
-8.72
-9.89
-11.34
-13.13
-15.22
-17.65
-20.52
-23.80
-27.31
-30.78
-34.00
-36.35
-36.97
-35.06
-30.24
-22.72
-13.02
-2.04
8.88
17.84
23.83
26.73
27.07
25.46
22.44
18.93
15.83
13.58
11.37
8.91
6.28
3.87
2.04
1.42
3.65
10.68
23.76
41.78
63.38
86.69
109.68
130.05
141.74
140.01
124.86
106.96
90.78
77.71
66.27
56.23
47.41
39.62
33.37
29.17
26.91
24.70
21.36
16.33
9.69
1.65
-7.36
-16.20
-23.71
-29.39
-34.32
-39.19
-44.23
-49.14
-53.47
-56.86
-58.79
-59.01
-57.84
-56.50
-55.70
-55.62
-55.90
-56.22
-56.29
-55.87
-54.89
-53.54
-52.49
-52.20
-52.88
-54.31
-55.96
-56.90
-55.98
-52.20
-45.14
-35.25
-23.49
-11.09
0.86
11.62
20.82
28.24
33.65
36.79
37.52
36.07
33.06
29.46
26.23
24.00
22.87
22.47
22.15
21.32
19.66
17.23
14.38
11.55
9.11
7.20
5.70
4.25
2.44
-0.16
-3.84
-8.69
-14.65
-21.37
-28.18
-34.05
-37.82
-38.47
-35.55
-29.44
-21.40
-13.02
-5.80
-0.60
2.49
3.83
3.86
2.72
0.29
-3.62
-8.82
-14.64
-20.08
-24.22
-26.57
-27.29
-27.04
-26.62
-26.62
-27.24
-28.27
-29.31
-30.01
-30.28
-30.26
-30.36
-31.00
-32.63
-35.56
-39.81
-44.97
-50.11
-53.87
-54.75
-51.63
-44.09
-32.71
-18.86
-4.37
9.09
20.28
28.69
34.31
37.39
38.25
37.13
34.24
29.96
24.87
19.74
15.30
12.01
9.84
8.39
7.11
5.63
3.94
2.35
1.25
0.78
0.85
1.11
1.12
0.54
-0.96
-3.73
-8.10
-14.09
-21.13
-27.90
-32.62
-33.70
-30.44
-23.32
-13.81
-3.68
5.71
13.75
20.48
26.12
30.68
33.84
35.08
34.14
31.16
26.79
21.87
17.29
13.64
11.21
9.93
9.39
9.05
8.31
6.79
4.41
1.42
-1.69
-4.19
-5.15
-3.51
1.83
11.45
25.15
41.59
58.54
73.59
84.96
92.11
95.82
97.62
98.97
100.78
103.10
105.46
107.25
107.96
107.30
105.09
101.18
95.52
88.25
79.76
70.65
61.59
53.13
45.53
38.60
31.71
23.99
14.70
3.52
-9.19
-22.50
-35.35
-46.87
-56.86
-65.71
-74.19
-83.06
-92.60
-102.41
-111.45
-118.33
-121.66
-120.55
-114.79
-105.00
-92.40
-78.59
-65.11
-53.24
-43.76
-36.91
-32.42
-29.67
-27.83
-26.08
-23.87
-20.94
-17.38
-13.43
-9.44
-5.70
-2.47
-0.00
1.51
1.96
1.43
0.21
-1.22
-2.43
-3.23
-3.77
-4.64
-6.57
-10.22
-15.80
-22.81
-30.09
-36.03
-39.03
-38.02
-32.78
-24.03
-13.13
-1.67
9.00
18.09
25.35
30.83
34.72
37.07
37.90
37.25
35.33
32.56
29.46
26.51
23.93
21.69
19.57
17.37
15.04
12.71
10.63
8.97
7.73
6.74
5.70
4.38
2.61
0.28
-2.83
-6.99
-12.37
-18.82
-25.53
-31.17
-34.15
-33.21
-27.84
-18.54
-6.60
6.26
18.41
28.73
36.62
41.97
44.90
45.67
44.54
41.82
37.93
33.36
28.71
24.53
21.20
18.89
17.50
16.73
16.20
15.51
14.35
12.48
9.74
6.13
1.81
-2.97
-7.85
-12.57
-17.05
-21.46
-26.13
-31.29
-36.80
-41.95
-45.52
-46.08
-42.58
-34.77
-23.41
-10.07
3.29
14.90
23.50
28.48
29.91
28.51
25.43
22.09
19.74
19.04
19.78
21.03
21.55
20.47
17.63
13.58
9.27
5.45
2.46
0.19
-1.58
-3.03
-4.21
-5.25
-6.51
-8.60
-12.09
-17.31
-24.03
-31.51
-38.60
-44.00
-46.58
-45.59
-40.82
-32.69
-22.22
-10.72
0.41
10.18
18.10
24.21
28.78
31.99
33.83
34.14
32.80
29.98
26.21
22.26
18.93
16.71
15.63
15.24
14.78
13.55
11.12
7.62
3.54
-0.48
-3.97
-6.91
-9.62
-12.63
-16.32
-20.84
-26.05
-31.58
-36.88
-41.21
-43.60
-43.04
-38.81
-30.83
-19.84
-7.33
4.95
15.49
23.42
28.58
31.30
32.03
31.19
29.01
25.75
21.76
17.56
13.75
10.81
8.93
7.88
7.11
5.86
3.45
-0.58
-6.23
-12.98
-19.93
-25.84
-29.45
-29.75
-26.33
-19.62
-10.89
-1.94
5.47
10.35
12.87
14.27
16.31
20.38
26.92
35.23
43.87
51.33
56.63
59.48
60.01
58.43
54.72
48.75
40.59
30.70
20.03
9.76
0.90
-6.03
-11.04
-14.57
-17.24
-19.57
-21.85
-24.12
-26.29
-28.23
-29.84
-31.13
-32.21
-33.29
-34.64
-36.54
-39.23
-42.76
-46.93
-51.10
-54.23
-55.06
-52.47
-45.92
-35.69
-22.97
-9.43
3.22
13.83
21.90
27.55
31.11
32.84
32.82
31.07
27.79
23.48
18.96
15.03
12.25
10.72
10.08
9.70
8.97
7.61
5.69
3.53
1.47
-0.31
-1.90
-3.60
-5.76
-8.68
-12.57
-17.50
-23.40
-29.89
-36.20
-41.10
-43.14
-41.10
-34.58
-24.17
-11.49
1.42
12.71
21.25
26.82
29.82
30.90
30.54
28.99
26.32
22.74
18.73
14.91
11.90
9.99
9.09
8.80
8.60
8.10
7.13
5.78
4.22
2.60
0.96
-0.76
-2.71
-5.09
-8.08
-11.86
-16.53
-22.06
-28.07
-33.80
-38.11
-39.74
-37.76
-31.88
-22.68
-11.43
0.30
11.15
20.16
26.90
31.24
33.27
33.15
31.16
27.72
23.38
18.75
14.28
10.29
6.86
3.89
1.23
-1.29
-3.78
-6.30
-8.84
-11.40
-13.98
-16.65
-19.49
-22.60
-26.08
-30.06
-34.68
-40.04
-46.01
-52.08
-57.32
-60.57
-60.70
-57.19
-50.27
-41.00
-30.87
-21.30
-13.18
-6.69
-1.40
3.43
8.50
14.43
21.58
30.25
40.58
52.34
64.85
76.99
87.43
95.04
99.22
100.08
98.19
94.36
89.26
83.22
76.24
68.15
58.68
47.69
35.05
20.78
5.15
-11.21
-27.17
-41.14
-51.28
-55.91
-54.01
-45.60
-31.96
-15.27
1.89
17.29
29.48
37.91
42.76
44.45
43.40
39.92
34.44
27.59
20.26
13.45
7.84
3.62
0.41
-2.46
-5.62
-9.31
-13.40
-17.41
-20.87
-23.47
-25.21
-26.38
-27.39
-28.64
-30.37
-32.69
-35.53
-38.64
-41.53
-43.43
-43.38
-40.47
-34.23
-24.91
-13.54
-1.66
9.11
17.51
22.94
25.41
25.29
23.08
19.36
14.73
9.94
5.73
2.77
1.35
1.33
2.17
3.20
3.85
3.85
3.18
1.99
0.33
-1.84
-4.67
-8.29
-12.75
-18.11
-24.41
-31.72
-39.91
-48.39
-56.05
-61.44
-63.23
-60.83
-54.61
-45.84
-36.19
-27.18
-19.82
-14.55
-11.48
-10.56
-11.77
-14.94
-19.70
-25.32
-30.90
-35.60
-38.84
-40.44
-40.68
-40.04
-39.09
-38.21
-37.57
-37.09
-36.57
-35.82
-34.85
-33.92
-33.60
-34.55
-37.28
-41.81
-47.47
-52.87
-56.29
-56.12
-51.41
-42.17
-29.39
-14.62
0.42
14.35
26.29
35.83
42.83
47.25
49.07
48.45
45.80
41.85
37.53
33.71
30.95
29.34
28.50
27.80
26.59
24.45
21.34
17.55
13.59
9.91
6.72
3.93
1.19
-1.98
-6.01
-11.10
-17.12
-23.41
-28.92
-32.24
-32.06
-27.54
-18.74
-6.59
7.36
21.43
34.23
44.90
53.01
58.33
60.81
60.54
57.90
53.62
48.61
43.76
39.60
36.25
33.42
30.57
27.19
22.97
17.98
12.58
7.36
2.82
-0.86
-3.97
-7.17
-11.23
-16.66
-23.49
-31.34
-39.46
-46.99
-52.98
-56.43
-56.44
-52.39
-44.27
-32.76
-19.27
-5.50
7.00
17.17
24.61
29.38
31.77
32.11
30.70
27.91
24.24
20.31
16.78
14.16
12.69
12.25
12.45
12.72
12.53
11.60
9.91
7.75
5.51
3.50
1.78
0.06
-2.12
-5.24
-9.65
-15.32
-21.83
-28.26
-33.38
-35.87
-34.68
-29.39
-20.46
-9.09
3.06
14.42
23.94
31.17
36.10
38.87
39.53
38.08
34.63
29.69
24.11
18.96
15.06
12.74
11.71
11.23
10.55
9.18
7.07
4.51
1.91
-0.43
-2.44
-4.32
-6.43
-9.18
-12.93
-17.92
-24.14
-31.21
-38.28
-44.10
-47.23
-46.47
-41.25
-31.90
-19.62
-6.15
6.76
17.80
26.34
32.41
36.34
38.50
39.07
38.16
35.94
32.86
29.60
26.86
25.12
24.43
24.43
24.50
24.10
22.92
20.97
18.45
15.59
12.54
9.31
5.87
2.21
-1.68
-5.86
-10.47
-15.61
-21.15
-26.51
-30.63
-32.20
-30.15
-24.13
-14.76
-3.48
7.97
18.07
25.94
31.33
34.42
35.45
34.58
31.89
27.57
22.10
16.31
11.13
7.34
5.18
4.31
3.91
3.05
1.12
-1.95
-5.64
-9.13
-11.75
-13.29
-14.09
-14.82
-16.17
-18.49
-21.80
-25.80
-30.09
-34.22
-37.59
-39.38
-38.62
-34.40
-26.34
-14.91
-1.53
11.85
23.29
31.52
36.16
37.61
36.65
34.13
30.65
26.64
22.49
18.67
15.68
13.85
13.16
13.13
13.03
12.14
10.09
7.03
3.53
0.33
-2.06
-3.52
-4.42
-5.33
-6.87
-9.44
-13.18
-18.01
-23.63
-29.48
-34.68
-38.11
-38.63
-35.47
-28.53
-18.60
-7.11
4.28
14.20
21.88
27.20
30.44
31.99
32.13
30.96
28.60
25.34
21.64
18.12
15.20
13.06
11.49
10.09
8.51
6.59
4.41
2.20
0.15
-1.66
-3.35
-5.12
-7.22
-9.81
-13.00
-16.84
-21.27
-26.13
-31.03
-35.33
-38.23
-38.93
-36.90
-32.05
-24.75
-15.75
-5.93
3.80
12.63
19.90
25.05
27.75
27.88
25.66
21.64
16.66
11.67
7.58
4.95
3.95
4.28
5.32
6.33
6.72
6.21
4.86
2.97
0.86
-1.28
-3.53
-6.09
-9.28
-13.30
-18.23
-23.88
-29.78
-35.17
-39.08
-40.51
-38.69
-33.33
-24.81
-14.15
-2.71
8.12
17.26
24.06
28.35
30.21
29.88
27.72
24.20
19.96
15.68
11.99
9.25
7.52
6.53
5.81
4.93
3.62
1.91
0.00
-1.80
-3.35
-4.73
-6.27
-8.30
-11.09
-14.65
-18.82
-23.36
-27.94
-32.11
-35.23
-36.46
-34.96
-30.30
-22.68
-12.97
-2.48
7.51
16.03
22.62
27.14
29.59
30.00
28.53
25.51
21.57
17.42
13.68
10.69
8.44
6.73
5.29
3.93
2.56
1.18
-0.21
-1.62
-3.08
-4.59
-6.16
-7.89
-10.01
-12.82
-16.62
-21.47
-27.02
-32.43
-36.56
-38.23
-36.61
-31.51
-23.46
-13.58
-3.23
6.31
14.18
19.99
23.79
25.83
26.38
25.59
23.62
20.76
17.47
14.35
11.90
10.32
9.48
8.94
8.23
7.08
5.46
3.57
1.66
-0.08
-1.64
-3.13
-4.76
-6.71
-9.19
-12.34
-16.22
-20.69
-25.28
-29.19
-31.35
-30.78
-26.93
-19.95
-10.76
-0.71
8.80
16.73
22.57
26.30
28.12
28.26
26.92
24.32
20.86
17.03
13.42
10.50
8.48
7.29
6.60
5.98
5.07
3.65
1.77
-0.31
-2.30
-3.97
-5.31
-6.56
-8.11
-10.33
-13.46
-17.50
-22.22
-27.20
-31.74
-34.98
-35.94
-33.83
-28.38
-19.99
-9.72
1.00
10.85
18.88
24.67
28.17
29.49
28.84
26.49
22.89
18.63
14.40
10.78
8.17
6.63
5.97
5.74
5.44
4.64
3.17
1.18
-0.92
-2.75
-4.18
-5.46
-7.17
-9.85
-13.81
-18.93
-24.69
-30.30
-34.83
-37.36
-37.07
-33.49
-26.69
-17.42
-6.96
3.24
12.03
18.82
23.60
26.63
28.10
28.04
26.32
23.05
18.68
14.06
10.09
7.31
5.72
4.78
3.79
2.22
0.04
-2.36
-4.43
-5.77
-6.38
-6.63
-7.15
-8.51
-11.09
-14.99
-20.03
-25.76
-31.41
-36.01
-38.42
-37.70
-33.36
-25.69
-15.69
-4.83
5.45
14.11
20.68
25.21
27.89
28.95
28.44
26.48
23.37
19.67
16.11
13.30
11.53
10.65
10.14
9.42
8.07
5.99
3.39
0.64
-1.92
-4.14
-6.11
-8.06
-10.30
-13.13
-16.77
-21.35
-26.72
-32.37
-37.34
-40.43
-40.48
-36.78
-29.44
-19.32
-7.83
3.56
13.70
21.95
28.05
32.00
33.78
33.43
31.03
26.93
21.78
16.47
11.91
8.78
7.33
7.30
8.03
8.64
8.42
7.00
4.50
1.42
-1.64
-4.21
-6.20
-7.88
-9.77
-12.46
-16.41
-21.70
-27.89
-34.04
-38.81
-40.86
-39.22
-33.69
-24.89
-14.10
-2.81
7.69
16.58
23.52
28.43
31.33
32.26
31.31
28.77
25.18
21.23
17.54
14.50
12.22
10.57
9.28
8.11
6.89
5.52
3.97
2.22
0.34
-1.60
-3.56
-5.57
-7.83
-10.73
-14.70
-19.88
-26.05
-32.46
-37.93
-41.20
-41.18
-37.33
-29.77
-19.35
-7.46
4.35
14.75
22.90
28.56
31.94
33.35
33.07
31.22
27.97
23.73
19.21
15.27
12.53
11.13
10.61
10.24
9.30
7.50
4.97
2.15
-0.52
-2.80
-4.74
-6.60
-8.76
-11.52
-15.12
-19.67
-25.14
-31.22
-37.28
-42.22
-44.74
-43.64
-38.28
-28.92
-16.78
-3.67
8.59
18.69
26.13
31.02
33.77
34.72
34.03
31.78
28.20
23.83
19.42
15.73
13.19
11.75
10.99
10.32
9.24
7.55
5.38
3.01
0.69
-1.50
-3.69
-6.12
-9.08
-12.77
-17.26
-22.51
-28.33
-34.19
-39.27
-42.41
-42.53
-38.87
-31.44
-21.02
-8.99
3.12
14.12
23.30
30.44
35.50
38.53
39.52
38.54
35.86
32.07
27.89
24.07
21.13
19.20
18.01
17.07
15.86
14.08
11.70
9.00
6.34
4.02
2.05
0.22
-1.80
-4.34
-7.61
-11.72
-16.61
-22.00
-27.24
-31.34
-33.10
-31.52
-26.21
-17.64
-6.97
4.32
14.88
23.79
30.55
34.98
37.04
36.75
34.27
30.04
24.73
19.20
14.24
10.42
7.90
6.47
5.66
4.85
3.55
1.55
-1.02
-3.78
-6.23
-8.01
-9.17
-10.11
-11.47
-13.91
-17.78
-22.95
-28.80
-34.33
-38.40
-40.02
-38.52
-33.74
-26.05
-16.30
-5.63
4.78
13.91
21.08
25.99
28.62
29.15
27.86
25.15
21.53
17.62
13.97
11.00
8.78
7.16
5.77
4.22
2.30
-0.02
-2.51
-4.87
-6.78
-8.18
-9.18
-10.16
-11.63
-14.10
-17.86
-22.80
-28.33
-33.37
-36.61
-36.89
-33.57
-26.73
-17.22
-6.30
4.71
14.72
23.03
29.19
32.93
34.11
32.76
29.25
24.34
19.05
14.40
11.07
9.17
8.27
7.74
6.95
5.60
3.74
1.66
-0.39
-2.35
-4.36
-6.70
-9.59
-13.15
-17.40
-22.26
-27.50
-32.68
-36.97
-39.27
-38.51
-34.07
-26.13
-15.65
-4.14
6.91
16.43
23.90
29.21
32.44
33.59
32.67
29.82
25.52
20.61
16.05
12.60
10.47
9.34
8.52
7.33
5.43
2.94
0.31
-1.97
-3.64
-4.84
-5.99
-7.70
-10.52
-14.75
-20.37
-26.87
-33.28
-38.26
-40.47
-38.92
-33.40
-24.56
-13.68
-2.36
8.07
16.69
23.09
27.22
29.14
28.99
27.01
23.62
19.45
15.28
11.81
9.43
8.07
7.24
6.32
4.86
2.84
0.58
-1.41
-2.84
-3.78
-4.70
-6.12
-8.46
-11.83
-16.08
-20.93
-25.97
-30.65
-34.14
-35.46
-33.70
-28.41
-19.97
-9.48
1.50
11.47
19.45
25.04
28.30
29.52
28.91
26.72
23.26
19.04
14.74
11.06
8.48
7.07
6.47
6.05
5.19
3.56
1.27
-1.25
-3.44
-4.95
-5.82
-6.45
-7.49
-9.53
-12.93
-17.60
-22.91
-27.77
-30.77
-30.61
-26.46
-18.36
-7.32
4.99
16.73
26.49
33.62
38.24
41.01
42.71
44.04
45.44
47.16
49.22
51.49
53.65
55.31
56.05
55.64
54.05
51.55
48.52
45.36
42.10
38.32
33.18
25.78
15.54
2.50
-12.60
-28.63
-44.40
-58.90
-71.30
-80.85
-86.72
-88.13
-84.67
-76.68
-65.34
-52.43
-39.85
-29.09
-20.91
-15.34
-12.01
-10.40
-10.06
-10.67
-11.93
-13.45
-14.77
-15.43
-15.19
-14.15
-12.77
-11.70
-11.55
-12.54
-14.40
-16.48
-18.02
-18.51
-17.94
-16.84
-16.05
-16.45
-18.53
-22.13
-26.47
-30.26
-32.10
-30.90
-26.18
-18.14
-7.63
4.21
16.16
27.20
36.52
43.57
47.99
49.69
48.78
45.67
40.95
35.27
29.21
23.14
17.20
11.41
5.74
0.25
-4.84
-9.21
-12.49
-14.42
-14.95
-14.30
-12.95
-11.55
-10.81
-11.37
-13.64
-17.61
-22.64
-27.51
-30.66
-30.64
-26.64
-18.83
-8.30
3.32
14.41
23.84
31.10
36.07
38.83
39.43
37.91
34.53
29.86
24.77
20.23
16.93
15.08
14.30
13.83
12.87
10.90
7.95
4.51
1.29
-1.14
-2.68
-3.72
-5.03
-7.41
-11.36
-16.93
-23.61
-30.44
-36.17
-39.56
-39.63
-36.01
-28.99
-19.49
-8.80
1.75
11.05
18.35
23.29
25.80
26.13
24.73
22.16
19.07
15.98
13.23
10.92
9.03
7.39
5.90
4.43
2.88
1.23
-0.48
-2.07
-3.32
-3.94
-3.88
-3.25
-2.51
-2.26
-3.12
-5.42
-8.98
-13.04
-16.42
-17.85
-16.38
-11.70
-4.33
4.60
13.70
21.77
28.04
32.30
34.59
35.05
33.73
30.67
26.10
20.54
14.82
9.84
6.22
4.08
2.96
2.11
0.79
-1.38
-4.40
-7.96
-11.75
-15.55
-19.32
-23.12
-27.01
-31.07
-35.43
-40.34
-46.01
-52.47
-59.22
-65.19
-68.92
-69.09
-65.10
-57.31
-47.01
-35.97
-25.84
-17.83
-12.40
-9.52
-8.76
-9.49
-10.95
-12.27
-12.45
-10.51
-5.67
2.41
13.33
26.07
39.12
50.90
60.27
66.85
71.05
73.81
76.18
78.85
81.94
85.01
87.29
87.88
86.05
81.41
74.10
64.95
55.40
47.22
41.99
40.56
42.77
47.42
52.74
56.97
58.82
57.73
53.77
47.37
39.10
29.52
19.19
8.77
-1.01
-9.53
-16.40
-21.61
-25.54
-28.65
-31.28
-33.50
-35.19
-36.28
-37.01
-37.93
-39.77
-43.09
-48.08
-54.39
-61.36
-68.28
-74.50
-79.50
-82.79
-83.77
-81.88
-76.81
-68.74
-58.43
-47.13
-36.11
-26.33
-18.18
-11.61
-6.35
-2.28
0.50
1.80
1.52
-0.08
-2.43
-4.89
-6.88
-8.12
-8.55
-8.26
-7.23
-5.42
-2.71
0.81
4.84
8.87
12.28
14.59
15.48
14.89
12.86
9.47
4.82
-0.82
-6.72
-11.73
-14.44
-13.71
-9.10
-1.19
8.69
18.84
27.88
35.03
40.13
43.40
45.07
45.18
43.69
40.62
36.15
30.66
24.64
18.58
12.77
7.40
2.49
-2.02
-6.13
-9.79
-12.86
-15.19
-16.74
-17.70
-18.40
-19.33
-20.88
-23.34
-26.83
-31.27
-36.31
-41.29
-45.20
-46.92
-45.53
-40.67
-32.73
-22.71
-11.82
-1.11
8.77
17.46
24.64
29.88
32.71
32.85
30.54
26.56
22.00
17.90
14.90
13.13
12.24
11.74
11.11
10.06
8.45
6.34
3.83
1.08
-1.84
-4.91
-8.19
-11.78
-15.72
-19.97
-24.31
-28.33
-31.44
-32.90
-32.03
-28.36
-21.89
-13.22
-3.36
6.43
15.06
21.80
26.36
28.80
29.37
28.30
25.92
22.61
18.90
15.37
12.54
10.70
9.72
9.15
8.38
6.91
4.58
1.61
-1.51
-4.25
-6.28
-7.66
-8.76
-10.18
-12.42
-15.80
-20.20
-25.14
-29.79
-33.09
-34.03
-31.79
-26.16
-17.53
-6.94
4.17
14.35
22.49
28.08
31.16
32.19
31.74
30.28
28.09
25.40
22.44
19.53
17.00
15.00
13.39
11.80
9.83
7.26
4.31
1.42
-0.90
-2.44
-3.41
-4.34
-5.80
-8.23
-11.74
-16.19
-21.21
-26.26
-30.64
-33.48
-33.85
-31.11
-25.15
-16.59
-6.60
3.43
12.29
19.28
24.12
26.87
27.63
26.56
23.89
20.09
15.80
11.74
8.44
6.07
4.42
3.08
1.69
0.04
-1.80
-3.63
-5.29
-6.74
-8.10
-9.57
-11.34
-13.61
-16.57
-20.31
-24.78
-29.61
-33.96
-36.72
-36.82
-33.67
-27.37
-18.77
-9.08
0.50
9.10
16.24
21.75
25.51
27.47
27.58
25.96
22.92
18.95
14.64
10.53
7.02
4.29
2.31
0.85
-0.35
-1.50
-2.66
-3.79
-4.85
-5.87
-7.00
-8.47
-10.60
-13.64
-17.75
-22.74
-27.99
-32.48
-34.98
-34.45
-30.46
-23.40
-14.36
-4.69
4.36
12.07
18.14
22.60
25.49
26.76
26.36
24.35
21.07
17.12
13.27
10.15
8.07
6.94
6.31
5.61
4.38
2.43
-0.11
-2.85
-5.39
-7.45
-9.06
-10.54
-12.40
-15.16
-19.08
-23.98
-29.15
-33.45
-35.63
-34.68
-30.24
-22.67
-12.99
-2.53
7.38
15.73
21.90
25.64
27.02
26.36
24.13
20.93
17.34
13.84
10.75
8.18
6.04
4.13
2.18
-0.06
-2.68
-5.56
-8.42
-10.84
-12.58
-13.72
-14.70
-16.27
-19.07
-23.45
-29.21
-35.59
-41.35
-45.08
-45.50
-41.75
-33.70
-22.00
-7.94
6.83
20.77
32.70
41.96
48.34
51.85
52.62
50.90
47.13
42.03
36.50
31.41
27.34
24.38
22.22
20.31
18.15
15.48
12.34
9.00
5.81
3.02
0.67
-1.45
-3.71
-6.60
-10.54
-15.76
-22.11
-29.05
-35.64
-40.70
-43.11
-42.12
-37.58
-30.07
-20.70
-10.84
-1.79
5.50
10.59
13.46
14.37
13.78
12.16
10.01
7.73
5.60
3.77
2.26
0.97
-0.22
-1.45
-2.77
-4.17
-5.59
-6.90
-7.99
-8.80
-9.42
-10.07
-11.14
-13.07
-16.23
-20.76
-26.47
-32.78
-38.81
-43.49
-45.76
-44.79
-40.32
-32.69
-22.92
-12.41
-2.57
5.59
11.65
15.80
18.58
20.57
22.11
23.35
24.34
25.25
26.32
27.85
29.98
32.53
34.95
36.60
36.95
35.86
33.61
30.82
28.15
25.99
24.37
22.93
21.02
17.97
13.30
6.94
-0.58
-8.15
-14.29
-17.54
-16.97
-12.46
-4.76
4.78
14.63
23.51
30.55
35.26
37.51
37.37
35.11
31.16
26.09
20.56
15.15
10.26
6.09
2.67
-0.09
-2.30
-4.06
-5.39
-6.27
-6.60
-6.29
-5.28
-3.69
-1.78
0.03
1.27
1.50
0.39
-2.09
-5.51
-9.01
-11.31
-11.16
-7.71
-0.95
8.12
17.77
26.11
31.59
33.49
31.85
27.29
20.68
12.88
4.68
-3.19
-10.06
-15.48
-19.32
-21.90
-23.85
-25.89
-28.55
-31.99
-36.04
-40.30
-44.40
-48.13
-51.49
-54.61
-57.61
-60.48
-63.01
-64.72
-65.01
-63.20
-58.74
-51.31
-40.90
-27.76
-12.33
4.80
22.86
40.86
57.54
71.51
81.46
86.51
86.47
81.89
73.85
63.74
52.79
41.89
31.58
22.12
13.64
6.33
0.26
-4.57
-8.39
-11.61
-14.60
-17.62
-20.70
-23.81
-26.99
-30.49
-34.69
-39.86
-45.86
-52.08
-57.48
-60.95
-61.70
-59.46
-54.57
-47.87
-40.40
-33.15
-26.88
-22.06
-19.00
-17.90
-18.93
-22.11
-27.14
-33.32
-39.63
-44.98
-48.61
-50.32
-50.46
-49.73
-48.89
-48.58
-49.15
-50.40
-51.42
-50.46
-45.35
-34.20
-16.34
7.31
34.44
62.30
88.74
112.86
134.81
155.11
173.72
189.75
201.70
208.07
208.03
201.58
189.50
172.90
152.97
130.84
107.57
84.26
62.00
41.89
24.78
11.08
0.52
-7.73
-14.86
-21.91
-29.43
-37.26
-44.73
-51.03
-55.68
-58.67
-60.45
-61.68
-62.90
-64.48
-66.54
-69.07
-71.98
-74.91
-77.20
-77.90
-76.07
-71.05
-62.84
-52.17
-40.30
-28.68
-18.47
-10.42
-4.74
-1.31
0.19
0.15
-0.99
-2.82
-4.90
-6.81
-8.25
-9.07
-9.36
-9.40
-9.61
-10.33
-11.71
-13.56
-15.55
-17.31
-18.70
-19.85
-21.16
-23.14
-26.14
-30.18
-34.78
-39.05
-41.81
-41.97
-38.91
-32.70
-24.14
-14.43
-4.86
3.60
10.42
15.42
18.55
19.73
18.89
16.11
11.80
6.68
1.54
-3.03
-6.86
-10.13
-13.17
-16.12
-18.78
-20.72
-21.50
-21.05
-19.80
-18.65
-18.62
-20.61
-25.08
-31.98
-40.72
-50.12
-58.35
-63.14
-62.17
-53.74
-37.47
-14.59
12.36
40.24
66.17
88.22
105.54
118.12
126.34
130.66
131.42
128.98
123.80
116.44
107.54
97.59
86.81
75.12
62.27
48.10
32.75
16.81
1.23
-13.01
-25.22
-35.14
-43.07
-49.59
-55.36
-60.91
-66.55
-72.34
-78.06
-83.26
-87.27
-89.31
-88.78
-85.41
-79.42
-71.56
-62.89
-54.53
-47.39
-42.04
-38.73
-37.52
-38.28
-40.61
-43.66
-45.90
-45.36
-40.18
-29.32
-13.19
6.41
26.89
45.88
62.00
75.10
85.89
95.20
103.37
110.20
115.13
117.80
118.25
116.79
113.62
108.57
101.23
91.20
78.69
64.67
50.68
38.33
28.60
21.62
16.63
12.58
8.53
4.02
-0.94
-6.10
-11.23
-16.19
-20.91
-25.27
-29.07
-32.03
-33.96
-34.81
-34.80
-34.28
-33.63
-33.13
-32.82
-32.61
-32.35
-31.97
-31.52
-31.15
-30.99
-31.16
-31.67
-32.50
-33.62
-34.91
-36.05
-36.43
-35.27
-31.91
-26.08
-18.10
-8.79
0.72
9.40
16.53
21.79
25.19
26.94
27.24
26.33
24.41
21.77
18.73
15.69
12.98
10.87
9.45
8.67
8.33
8.14
7.80
7.11
6.00
4.55
2.92
1.21
-0.59
-2.60
-5.03
-7.98
-11.46
-15.31
-19.19
-22.68
-25.18
-26.05
-24.68
-20.78
-14.54
-6.76
1.36
8.56
13.88
16.93
17.89
17.30
15.78
13.79
11.62
9.35
7.04
4.77
2.72
1.06
-0.08
-0.73
-1.08
-1.41
-1.98
-2.92
-4.17
-5.50
-6.67
-7.53
-8.06
-8.48
-9.16
-10.53
-12.89
-16.26
-20.17
-23.75
-25.93
-25.77
-22.87
-17.47
-10.43
-2.87
4.12
9.80
13.81
16.09
16.79
16.17
14.53
12.24
9.68
7.22
5.13
3.60
2.69
2.28
2.11
1.85
1.23
0.13
-1.41
-3.24
-5.16
-6.99
-8.57
-9.75
-10.44
-10.72
-10.89
-11.49
-13.02
-15.66
-19.06
-22.32
-24.35
-24.26
-21.74
-17.11
-11.15
-4.72
1.47
6.94
11.45
14.85
17.02
17.89
17.52
16.12
14.06
11.77
9.59
7.74
6.30
5.23
4.46
3.90
3.47
3.14
2.88
2.72
2.60
2.34
1.69
0.43
-1.47
-3.84
-6.32
-8.57
-10.50
-12.34
-14.52
-17.32
-20.53
-23.41
-24.87
-23.97
-20.34
-14.38
-7.10
0.26
6.63
11.39
14.40
15.85
16.09
15.44
14.17
12.54
10.82
9.28
8.10
7.33
6.87
6.55
6.21
5.72
5.05
4.22
3.28
2.30
1.33
0.45
-0.28
-0.84
-1.34
-1.95
-2.92
-4.41
-6.54
-9.28
-12.47
-15.88
-19.15
-21.80
-23.25
-22.99
-20.77
-16.68
-11.22
-5.11
0.84
5.97
9.86
12.33
13.43
13.39
12.60
11.53
10.61
10.07
9.85
9.70
9.30
8.49
7.37
6.26
5.49
5.22
5.35
5.48
5.15
4.04
2.12
-0.37
-2.97
-5.25
-6.95
-8.06
-8.87
-9.87
-11.52
-14.01
-17.17
-20.36
-22.74
-23.49
-22.15
-18.75
-13.76
-7.87
-1.75
4.09
9.29
13.54
16.47
17.83
17.59
16.04
13.73
11.30
9.18
7.51
6.17
5.03
4.04
3.25
2.77
2.58
2.52
2.30
1.68
0.56
-1.04
-2.96
-5.05
-7.16
-9.20
-11.14
-12.99
-14.83
-16.81
-19.00
-21.34
-23.50
-24.98
-25.17
-23.61
-20.14
-15.01
-8.84
-2.47
3.32
7.92
10.98
12.45
12.52
11.64
10.45
9.66
9.84
11.24
13.68
16.61
19.31
21.12
21.69
20.96
19.18
16.67
13.69
10.41
6.89
3.20
-0.49
-3.90
-6.66
-8.58
-9.73
-10.56
-11.71
-13.71
-16.65
-20.07
-23.03
-24.47
-23.58
-20.11
-14.41
-7.37
-0.13
6.29
11.23
14.45
16.20
16.90
16.89
16.39
15.40
13.85
11.88
9.80
8.03
6.90
6.44
6.40
6.36
5.98
5.17
4.06
2.87
1.72
0.56
-0.74
-2.33
-4.22
-6.32
-8.47
-10.62
-12.90
-15.48
-18.50
-21.84
-24.97
-27.02
-27.04
-24.28
-18.57
-10.49
-1.28
7.60
14.89
19.94
22.83
24.14
24.50
24.24
23.31
21.54
18.92
15.89
13.20
11.61
11.42
12.30
13.45
14.03
13.58
12.19
10.37
8.65
7.29
6.11
4.70
2.58
-0.44
-4.32
-8.86
-13.93
-19.47
-25.40
-31.43
-36.89
-40.84
-42.31
-40.76
-36.29
-29.64
-21.95
-14.34
-7.57
-1.96
2.58
6.20
8.98
10.85
11.62
11.20
9.69
7.46
5.09
3.19
2.23
2.35
3.33
4.71
5.88
6.36
5.88
4.50
2.48
0.17
-2.09
-4.10
-5.82
-7.38
-9.06
-11.24
-14.27
-18.28
-23.01
-27.66
-31.12
-32.19
-30.09
-24.70
-16.68
-7.29
2.03
10.15
16.44
20.84
23.67
25.30
25.97
25.75
24.62
22.60
19.90
16.94
14.21
12.12
10.86
10.33
10.24
10.21
9.88
9.01
7.52
5.44
2.90
0.15
-2.63
-5.28
-7.82
-10.47
-13.61
-17.57
-22.42
-27.77
-32.78
-36.26
-37.07
-34.43
-28.29
-19.29
-8.63
2.28
12.22
20.41
26.47
30.42
32.40
32.63
31.39
29.04
26.06
22.99
20.28
18.15
16.62
15.47
14.44
13.27
11.80
9.93
7.64
5.00
2.10
-0.89
-3.83
-6.64
-9.37
-12.16
-15.22
-18.78
-22.95
-27.61
-32.30
-36.20
-38.26
-37.53
-33.43
-26.02
-16.12
-4.99
5.93
15.45
22.83
27.84
30.62
31.48
30.72
28.62
25.49
21.75
17.95
14.64
12.17
10.57
9.56
8.67
7.49
5.87
3.84
1.63
-0.56
-2.61
-4.54
-6.43
-8.40
-10.61
-13.25
-16.53
-20.59
-25.32
-30.20
-34.28
-36.44
-35.64
-31.41
-24.01
-14.37
-3.81
6.44
15.51
22.95
28.60
32.44
34.37
34.39
32.65
29.57
25.76
21.84
18.29
15.36
13.07
11.26
9.74
8.31
6.82
5.19
3.45
1.67
-0.07
-1.77
-3.61
-5.86
-8.85
-12.83
-17.90
-23.87
-30.32
-36.52
-41.54
-44.32
-43.97
-40.02
-32.65
-22.67
-11.36
-0.10
9.91
17.88
23.40
26.40
27.03
25.65
22.79
19.08
15.17
11.61
8.79
6.96
6.16
6.28
6.97
7.70
7.86
7.04
5.09
2.26
-1.09
-4.54
-7.89
-11.12
-14.36
-17.86
-21.97
-27.03
-33.16
-40.08
-46.78
-51.64
-52.77
-48.75
-39.13
-24.67
-7.11
11.52
29.47
45.65
59.61
71.16
80.05
85.86
88.21
87.03
82.75
76.35
68.98
61.61
54.76
48.42
42.20
35.73
28.89
22.02
15.72
10.56
6.75
3.96
1.49
-1.52
-5.67
-11.19
-17.86
-25.24
-32.77
-39.82
-45.67
-49.42
-50.18
-47.29
-40.68
-31.04
-19.72
-8.40
1.44
8.89
13.72
16.22
16.89
16.18
14.41
11.87
8.92
6.01
3.61
2.00
1.16
0.83
0.57
0.00
-1.05
-2.57
-4.32
-5.99
-7.29
-8.11
-8.58
-9.04
-9.91
-11.60
-14.27
-17.86
-22.12
-26.63
-30.84
-34.03
-35.36
-34.01
-29.47
-21.82
-11.85
-0.87
9.58
18.18
24.13
27.29
28.03
27.04
24.96
22.28
19.27
16.11
13.08
10.54
8.89
8.31
8.66
9.43
9.97
9.77
8.73
7.14
5.46
4.03
2.86
1.63
-0.08
-2.56
-5.84
-9.80
-14.16
-18.62
-22.80
-26.15
-27.91
-27.32
-23.90
-17.70
-9.41
-0.10
9.00
16.93
23.03
27.01
28.76
28.36
26.06
22.42
18.18
14.15
10.98
8.92
7.84
7.36
6.99
6.37
5.32
3.78
1.85
-0.34
-2.63
-4.84
-6.84
-8.67
-10.50
-12.70
-15.67
-19.63
-24.46
-29.64
-34.30
-37.40
-37.96
-35.36
-29.56
-21.14
-11.19
-1.03
8.16
15.63
21.08
24.60
26.43
26.74
25.63
23.24
19.96
16.43
13.40
11.45
10.72
10.88
11.28
11.29
10.59
9.23
7.48
5.65
3.87
2.09
0.18
-1.95
-4.35
-7.06
-10.24
-14.09
-18.72
-23.96
-29.16
-33.29
-35.17
-33.92
-29.30
-21.85
-12.76
-3.45
4.85
11.38
16.01
18.98
20.62
21.13
20.48
18.57
15.54
11.81
8.04
4.95
2.95
2.11
2.11
2.52
2.95
3.21
3.25
3.06
2.58
1.68
0.27
-1.63
-3.97
-6.68
-9.80
-13.48
-17.78
-22.54
-27.21
-30.85
-32.43
-31.07
-26.42
-18.82
-9.28
0.77
9.92
17.05
21.73
24.10
24.73
24.21
22.92
20.92
18.13
14.61
10.68
6.98
4.12
2.40
1.64
1.28
0.61
-0.80
-3.04
-5.81
-8.68
-11.38
-13.86
-16.22
-18.51
-20.68
-22.49
-23.64
-23.97
-23.37
-21.75
-18.83
-14.18
-7.38
1.63
12.32
23.59
33.98
42.23
47.63
50.19
50.43
49.08
46.66
43.32
38.98
33.57
27.23
20.48
14.02
8.47
4.06
0.55
-2.61
-5.99
-9.88
-14.12
-18.25
-21.72
-24.15
-25.51
-26.12
-26.51
-27.26
-28.84
-31.51
-35.32
-40.01
-45.03
-49.57
-52.57
-52.99
-50.11
-43.71
-34.23
-22.75
-10.65
0.70
10.33
17.73
22.84
25.92
27.32
27.38
26.39
24.61
22.32
19.85
17.55
15.70
14.40
13.50
12.62
11.27
9.10
6.03
2.29
-1.65
-5.32
-8.46
-11.13
-13.66
-16.52
-20.12
-24.63
-29.88
-35.30
-39.90
-42.48
-41.93
-37.60
-29.61
-18.88
-6.88
4.84
15.09
23.23
29.09
32.74
34.33
33.99
31.90
28.44
24.24
20.01
16.40
13.75
12.02
10.90
9.95
8.80
7.27
5.40
3.41
1.54
-0.09
-1.56
-3.06
-4.89
-7.29
-10.45
-14.49
-19.44
-25.09
-30.81
-35.52
-37.91
-36.78
-31.53
-22.49
-10.86
1.56
12.99
22.16
28.55
32.34
34.05
34.20
33.07
30.76
27.43
23.45
19.52
16.36
14.46
13.75
13.65
13.31
12.09
9.83
6.82
3.62
0.71
-1.65
-3.50
-5.03
-6.53
-8.38
-11.00
-14.78
-19.88
-25.98
-32.12
-36.89
-38.77
-36.71
-30.53
-21.04
-9.71
1.77
12.07
20.49
26.94
31.66
34.89
36.73
37.14
36.12
33.82
30.64
27.08
23.60
20.44
17.73
15.43
13.47
11.75
10.11
8.29
6.03
3.22
-0.02
-3.31
-6.21
-8.47
-10.23
-12.02
-14.52
-18.25
-23.21
-28.81
-34.02
-37.58
-38.37
-35.70
-29.50
-20.37
-9.41
2.05
12.75
21.78
28.66
33.26
35.60
35.79
34.00
30.59
26.14
21.35
16.85
13.02
10.00
7.71
6.03
4.86
4.04
3.31
2.38
1.05
-0.68
-2.65
-4.62
-6.57
-8.68
-11.23
-14.48
-18.43
-22.89
-27.46
-31.64
-34.81
-36.26
-35.23
-31.17
-23.99
-14.21
-2.96
8.32
18.28
25.88
30.61
32.45
31.84
29.51
26.33
23.08
20.32
18.25
16.76
15.63
14.64
13.63
12.56
11.39
10.06
8.50
6.66
4.59
2.43
0.33
-1.64
-3.61
-5.84
-8.69
-12.44
-17.22
-22.86
-28.87
-34.48
-38.66
-40.28
-38.43
-32.74
-23.59
-12.20
-0.26
10.56
19.07
24.86
28.13
29.38
29.09
27.54
24.93
21.53
17.76
14.15
11.13
8.87
7.33
6.30
5.56
4.93
4.20
3.11
1.45
-0.87
-3.69
-6.64
-9.35
-11.64
-13.66
-15.76
-18.37
-21.72
-25.79
-30.22
-34.42
-37.55
-38.69
-37.04
-32.15
-24.28
-14.33
-3.69
6.20
14.32
20.25
24.08
26.08
26.47
25.31
22.67
18.77
14.19
9.68
5.98
3.51
2.21
1.62
1.11
0.20
-1.24
-2.99
-4.65
-5.91
-6.66
-7.07
-7.41
-8.05
-9.25
-11.27
-14.37
-18.74
-24.30
-30.48
-36.00
-39.16
-38.27
-32.29
-21.28
-6.52
9.86
25.52
38.59
48.05
53.77
56.19
55.97
53.72
49.93
45.07
39.68
34.29
29.40
25.27
21.86
18.96
16.31
13.74
11.26
8.95
6.84
4.84
2.76
0.38
-2.40
-5.53
-8.86
-12.24
-15.63
-19.24
-23.44
-28.53
-34.53
-40.89
-46.51
-49.95
-49.93
-45.79
-37.79
-27.11
-15.37
-4.21
5.22
12.39
17.29
20.18
21.26
20.66
18.52
15.10
10.92
6.63
2.80
-0.22
-2.41
-3.98
-5.26
-6.49
-7.83
-9.36
-11.10
-13.03
-15.15
-17.36
-19.62
-21.89
-24.30
-27.03
-30.28
-34.17
-38.65
-43.47
-48.14
-51.91
-53.90
-53.20
-49.17
-41.65
-31.15
-18.78
-5.97
5.83
15.50
22.45
26.70
28.82
29.86
31.21
34.34
40.43
50.02
62.68
77.00
90.85
101.95
108.39
109.09
103.98
93.82
79.99
64.14
47.89
32.58
19.05
7.65
-1.71
-9.34
-15.53
-20.49
-24.26
-26.85
-28.21
-28.20
-26.46
-22.44
-15.54
-5.47
7.41
21.95
36.38
48.79
57.65
62.25
62.76
59.95
54.92
48.60
41.65
34.47
27.29
20.40
14.16
8.86
4.47
0.64
-3.34
-8.16
-14.21
-21.38
-29.06
-36.39
-42.61
-47.34
-50.55
-52.58
-53.92
-55.16
-56.85
-59.49
-63.32
-68.18
-73.36
-77.67
-79.70
-78.24
-72.80
-63.71
-52.05
-39.26
-26.75
-15.59
-6.33
0.78
5.72
8.55
9.40
8.56
6.56
4.11
1.99
0.75
0.60
1.32
2.31
2.93
2.71
1.54
-0.30
-2.38
-4.37
-6.25
-8.21
-10.54
-13.39
-16.74
-20.44
-24.46
-29.00
-34.35
-40.71
-47.86
-55.02
-61.00
-64.58
-64.98
-62.05
-56.41
-49.04
-40.97
-32.89
-25.11
-17.68
-10.65
-4.29
0.95
4.58
6.36
6.42
5.26
3.52
1.83
0.60
-0.02
-0.12
0.16
0.57
0.91
0.98
0.68
-0.02
-1.03
-2.28
-3.75
-5.53
-7.79
-10.80
-14.77
-19.75
-25.47
-31.16
-35.65
-37.58
-35.79
-29.77
-19.93
-7.52
5.69
17.97
28.10
35.50
40.19
42.46
42.66
41.11
38.20
34.38
30.26
26.47
23.51
21.57
20.52
19.89
19.11
17.71
15.51
12.69
9.65
6.80
4.37
2.30
0.26
-2.15
-5.35
-9.60
-15.06
-21.58
-28.62
-35.11
-39.60
-40.63
-37.28
-29.59
-18.60
-5.92
6.84
18.45
28.26
35.95
41.34
44.23
44.57
42.61
38.99
34.61
30.34
26.69
23.84
21.61
19.79
18.19
16.71
15.32
13.94
12.52
10.99
9.35
7.57
5.50
2.87
-0.66
-5.42
-11.57
-18.86
-26.62
-33.69
-38.59
-39.91
-36.74
-29.07
-17.85
-4.72
8.48
20.25
29.71
36.57
40.94
43.07
43.15
41.48
38.55
35.09
31.87
29.49
28.14
27.52
27.04
26.07
24.26
21.63
18.51
15.35
12.49
9.99
7.56
4.70
0.85
-4.45
-11.37
-19.65
-28.52
-36.72
-42.72
-45.13
-43.14
-36.76
-26.88
-15.01
-2.76
8.45
17.67
24.42
28.55
30.18
29.54
27.09
23.42
19.25
15.27
11.96
9.45
7.59
6.05
4.51
2.84
1.13
-0.39
-1.52
-2.18
-2.52
-2.89
-3.75
-5.63
-8.97
-13.92
-20.13
-26.61
-31.87
-34.26
-32.60
-26.57
-16.88
-5.08
7.06
17.94
26.58
32.57
35.98
37.11
36.31
34.03
30.69
26.79
22.82
19.16
16.10
13.70
11.89
10.46
9.14
7.69
6.00
4.12
2.27
0.70
-0.53
-1.58
-2.98
-5.30
-9.03
-14.24
-20.42
-26.50
-31.06
-32.75
-30.67
-24.76
-15.69
-4.80
6.37
16.41
24.38
29.77
32.55
32.95
31.34
28.21
24.11
19.62
15.30
11.51
8.39
5.80
3.42
0.96
-1.72
-4.38
-6.47
-7.34
-6.56
-4.24
-1.07
1.86
3.38
2.64
-0.78
-6.76
-14.69
-23.52
-31.76
-37.73
-39.91
-37.46
-30.55
-20.48
-9.15
1.50
10.13
16.23
20.03
22.04
22.67
22.11
20.38
17.58
14.04
10.29
6.90
4.18
2.15
0.53
-1.06
-2.83
-4.77
-6.60
-8.06
-9.04
-9.74
-10.64
-12.28
-15.06
-19.09
-24.10
-29.54
-34.63
-38.44
-40.04
-38.68
-33.96
-26.04
-15.76
-4.49
6.25
15.19
21.68
25.77
27.92
28.67
28.30
26.88
24.40
21.07
17.39
14.03
11.49
9.92
9.03
8.27
7.16
5.47
3.33
1.04
-1.04
-2.80
-4.34
-6.02
-8.34
-11.76
-16.45
-22.17
-28.11
-33.09
-35.79
-35.21
-31.04
-23.73
-14.36
-4.21
5.51
13.98
20.80
25.82
29.05
30.47
30.15
28.29
25.23
21.48
17.67
14.31
11.73
9.95
8.70
7.57
6.18
4.37
2.22
-0.02
-2.15
-4.17
-6.27
-8.76
-11.87
-15.69
-20.14
-24.99
-29.90
-34.35
-37.62
-38.77
-36.94
-31.61
-22.95
-11.89
0.07
11.29
20.48
26.97
30.74
32.21
31.89
30.18
27.29
23.43
18.99
14.51
10.64
7.83
6.17
5.28
4.56
3.35
1.36
-1.29
-4.12
-6.54
-8.22
-9.23
-10.02
-11.27
-13.55
-17.18
-22.15
-28.07
-34.25
-39.77
-43.48
-44.29
-41.38
-34.63
-24.74
-13.04
-1.07
9.95
19.39
27.19
33.47
38.19
41.04
41.66
39.94
36.29
31.56
26.75
22.67
19.70
17.71
16.28
14.89
13.12
10.80
7.98
4.89
1.80
-1.10
-3.75
-6.26
-8.89
-11.89
-15.46
-19.63
-24.28
-29.18
-33.88
-37.73
-39.85
-39.42
-35.82
-29.00
-19.51
-8.49
2.75
12.93
21.17
27.02
30.46
31.66
30.93
28.66
25.22
21.06
16.65
12.45
8.88
6.20
4.47
3.44
2.60
1.41
-0.53
-3.26
-6.53
-9.88
-13.04
-15.98
-18.93
-22.21
-26.01
-30.39
-35.22
-40.30
-45.20
-49.33
-51.82
-51.71
-48.29
-41.34
-31.36
-19.41
-6.83
5.16
15.65
24.10
30.23
33.99
35.51
35.14
33.49
31.17
28.78
26.70
25.05
23.88
23.17
22.79
22.54
22.13
21.22
19.66
17.57
15.26
13.14
11.42
10.00
8.46
6.26
2.90
-1.89
-8.02
-15.14
-22.46
-28.93
-33.32
-34.55
-32.04
-25.92
-17.09
-6.95
2.93
11.30
17.27
20.51
21.16
19.69
16.81
13.32
9.91
7.01
4.69
2.71
0.69
-1.61
-4.22
-6.90
-9.36
-11.43
-13.23
-15.05
-17.25
-20.07
-23.51
-27.37
-31.25
-34.60
-36.71
-36.68
-33.57
-26.59
-15.52
-0.87
16.08
33.66
50.26
64.84
77.07
87.21
95.64
102.48
107.30
109.26
107.48
101.55
91.69
78.82
64.19
48.98
34.07
20.04
7.24
-3.96
-13.09
-19.75
-23.68
-25.09
-24.59
-23.10
-21.47
-20.35
-20.11
-20.96
-23.21
-27.30
-33.71
-42.72
-54.04
-66.72
-79.15
-89.34
-95.36
-95.70
-89.71
-77.68
-60.83
-41.01
-20.36
-0.76
16.43
30.63
41.82
50.30
56.41
60.39
62.50
63.16
63.02
62.91
63.57
65.49
68.68
72.61
76.33
78.52
77.77
72.79
62.72
47.48
27.93
5.81
-16.69
-37.64
-55.79
-70.95
-83.69
-94.91
-105.23
-114.62
-122.44
-127.61
-129.14
-126.48
-119.78
-109.88
-98.14
-86.18
-75.56
-67.55
-62.87
-61.63
-63.22
-66.58
-70.28
-72.99
-73.64
-71.74
-67.34
-60.93
-53.29
-45.21
-37.32
-29.96
-23.08
-16.44
-9.73
-2.83
4.10
10.58
15.85
19.10
19.60
17.03
11.55
4.03
-4.00
-10.61
-13.98
-12.97
-7.48
1.62
12.83
24.60
35.80
45.73
53.99
60.26
64.12
65.26
63.68
59.84
54.59
48.97
43.80
39.52
36.07
33.07
30.02
26.53
22.44
17.87
13.17
8.77
4.99
1.89
-0.74
-3.39
-6.65
-11.04
-16.81
-23.74
-31.01
-37.30
-41.02
-40.87
-36.19
-27.32
-15.49
-2.41
10.26
21.35
30.30
36.99
41.41
43.54
43.34
40.96
36.93
32.15
27.59
24.00
21.63
20.20
19.09
17.73
15.82
13.44
10.97
8.85
7.29
6.22
5.23
3.72
1.06
-3.27
-9.48
-17.30
-25.83
-33.58
-38.77
-39.93
-36.38
-28.57
-17.89
-6.13
5.19
15.19
23.63
30.49
35.64
38.64
39.06
36.84
32.47
27.00
21.56
17.01
13.69
11.46
9.89
8.56
7.16
5.58
3.81
1.89
-0.12
-2.20
-4.37
-6.75
-9.60
-13.24
-18.00
-23.91
-30.52
-36.80
-41.28
-42.53
-39.62
-32.50
-22.06
-9.80
2.69
14.21
24.06
31.95
37.70
41.09
41.96
40.34
36.66
31.74
26.60
22.20
19.10
17.37
16.61
16.16
15.38
13.90
11.76
9.26
6.80
4.55
2.38
-0.10
-3.39
-7.85
-13.52
-20.07
-26.71
-32.36
-35.71
-35.64
-31.56
-23.69
-13.09
-1.36
9.96
19.79
27.67
33.59
37.58
39.57
39.43
37.28
33.65
29.48
25.73
23.02
21.38
20.37
19.36
17.91
15.91
13.53
11.07
8.75
6.70
4.94
3.37
1.71
-0.51
-3.96
-9.28
-16.69
-25.71
-35.02
-42.63
-46.54
-45.39
-38.99
-28.38
-15.44
-2.24
9.61
19.22
26.37
31.11
33.61
33.97
32.39
29.29
25.37
21.45
18.21
16.01
14.76
14.04
13.27
12.01
10.11
7.82
5.64
4.00
3.08
2.51
1.59
-0.52
-4.37
-9.98
-16.71
-23.50
-29.07
-32.23
-32.16
-28.56
-21.71
-12.53
-2.25
7.75
16.35
22.87
27.13
29.35
29.92
29.19
27.34
24.41
20.40
15.53
10.25
5.25
1.22
-1.39
-2.61
-2.90
-3.04
-3.70
-5.29
-7.72
-10.63
-13.59
-16.33
-18.91
-21.51
-24.41
-27.78
-31.64
-35.74
-39.55
-42.26
-42.92
-40.65
-34.98
-26.11
-14.89
-2.70
8.98
18.97
26.62
31.78
34.68
35.73
35.28
33.71
31.42
28.76
26.09
23.62
21.50
19.72
18.27
17.03
15.85
14.49
12.65
10.10
6.82
3.06
-0.79
-4.32
-7.35
-10.02
-12.66
-15.68
-19.34
-23.78
-28.89
-34.44
-39.91
-44.51
-47.17
-46.90
-43.10
-35.89
-26.18
-15.37
-4.88
4.21
11.37
16.51
19.77
21.38
21.64
21.02
20.16
19.70
20.11
21.51
23.73
26.36
29.02
31.38
33.13
34.01
33.78
32.35
29.82
26.53
22.87
19.16
15.55
12.01
8.43
4.70
0.66
-3.85
-8.97
-14.70
-20.78
-26.43
-30.59
-32.09
-30.15
-24.77
-16.77
-7.55
1.36
8.81
14.30
17.85
19.71
20.10
19.02
16.46
12.63
8.07
3.56
-0.18
-2.82
-4.46
-5.52
-6.48
-7.67
-9.21
-11.13
-13.45
-16.19
-19.27
-22.39
-25.14
-27.11
-28.12
-28.35
-28.26
-28.44
-29.34
-31.17
-33.73
-36.40
-38.29
-38.39
-35.92
-30.62
-22.93
-13.92
-4.96
2.69
8.19
11.34
12.44
12.06
10.81
9.21
7.58
6.09
4.79
3.67
2.70
1.83
1.00
0.17
-0.72
-1.73
-2.93
-4.36
-6.12
-8.26
-10.90
-14.05
-17.61
-21.37
-25.04
-28.46
-31.67
-34.92
-38.48
-42.31
-45.93
-48.40
-48.56
-45.45
-38.67
-28.54
-15.99
-2.27
11.31
23.66
33.98
41.85
47.15
50.11
51.22
51.07
50.24
49.11
47.88
46.60
45.23
43.61
41.50
38.62
34.68
29.61
23.64
17.26
11.02
5.34
0.29
-4.32
-8.76
-13.25
-17.82
-22.41
-26.91
-31.19
-35.02
-37.88
-39.07
-37.95
-34.15
-27.93
-20.07
-11.69
-3.83
2.84
8.11
12.09
14.98
16.82
17.50
16.82
14.68
11.22
6.86
2.19
-2.19
-5.79
-8.40
-10.10
-11.17
-12.03
-13.02
-14.26
-15.66
-16.94
-17.75
-17.89
-17.41
-16.61
-16.00
-16.18
-17.66
-20.70
-25.25
-30.85
-36.66
-41.60
-44.53
-44.67
-41.72
-35.98
-28.17
-19.04
-9.17
1.31
12.44
24.17
36.00
46.92
55.64
61.09
62.79
61.07
56.84
51.25
45.32
39.77
34.98
31.08
27.96
25.26
22.33
18.41
12.89
5.53
-3.29
-12.69
-21.65
-29.27
-35.09
-39.09
-41.56
-42.79
-42.91
-41.77
-39.13
-34.80
-28.87
-21.68
-13.84
-6.01
1.22
7.31
11.73
14.02
13.82
10.97
5.66
-1.57
-9.92
-18.57
-26.81
-34.13
-40.20
-44.89
-48.13
-50.00
-50.65
-50.22
-48.76
-46.16
-42.27
-37.08
-30.86
-24.15
-17.72
-12.40
-8.94
-7.83
-9.19
-12.61
-17.08
-21.07
-22.87
-21.15
-15.59
-7.05
2.82
12.25
20.06
25.91
30.14
33.38
35.98
37.68
37.99
36.57
33.59
29.55
24.94
19.95
14.88
10.13
6.32
4.35
5.33
10.10
18.65
29.91
42.00
53.17
61.92
66.98
67.47
63.17
54.77
43.57
31.24
19.59
11.03
7.71
10.79
19.88
33.13
47.50
59.18
64.56
58.70
40.52
14.94
-9.59
-27.00
-36.35
-39.90
-39.97
-37.10
-30.22
-17.83
-0.39
18.78
34.71
43.41
43.90
38.32
30.51
24.06
21.37
21.92
23.71
24.36
22.37
17.73
11.53
5.20
-0.06
-3.25
-3.98
-2.14
2.07
8.34
16.27
25.10
33.67
40.61
44.67
44.69
40.18
31.42
19.47
5.57
-9.15
-23.86
-37.92
-50.66
-61.51
-69.88
-75.25
-77.87
-79.31
-82.44
-90.17
-104.03
-122.89
-142.88
-158.07
-162.20
-150.97
-123.65
-83.05
-34.35
16.28
62.44
97.65
116.66
117.12
100.76
73.23
43.01
19.10
8.15
14.15
34.40
58.39
73.61
73.05
57.23
31.58
2.93
-22.86
-43.70
-59.76
-71.56
-79.26
-82.74
-82.30
-78.81
-73.58
-68.22
-62.02
-55.42
-48.57
-40.92
-31.54
-19.97
-6.75
6.77
18.97
28.61
35.00
38.68
41.32
44.91
50.99
60.11
71.95
85.64
100.05
113.64
124.82
132.04
133.89
129.28
117.77
99.83
76.87
51.03
24.56
-0.29
-21.63
-38.14
-49.15
-54.72
-55.60
-53.06
-48.70
-44.24
-41.05
-40.03
-41.56
-45.56
-51.57
-58.86
-66.43
-73.26
-78.60
-82.21
-84.60
-86.84
-90.12
-95.07
-101.34
-107.59
-112.02
-113.05
-109.96
-102.93
-92.74
-80.14
-65.55
-49.09
-31.03
-12.22
5.72
20.80
31.39
36.89
38.07
36.81
35.34
35.32
37.30
40.64
43.98
45.95
45.81
43.67
40.29
36.62
33.35
30.60
28.03
24.94
20.63
14.52
6.43
-3.37
-14.01
-24.04
-31.66
-35.08
-33.11
-25.56
-13.38
1.62
17.30
31.74
43.65
52.46
58.12
60.93
61.28
59.69
56.67
52.78
48.55
44.39
40.57
37.19
34.17
31.38
28.62
25.81
23.00
20.36
18.10
16.27
14.72
13.02
10.58
6.88
1.49
-5.71
-14.40
-23.81
-32.63
-39.22
-41.87
-39.42
-31.68
-19.59
-4.97
10.09
23.84
35.26
44.00
50.10
53.70
54.92
53.87
50.85
46.42
41.34
36.38
32.03
28.43
25.29
22.13
18.50
14.26
9.67
5.21
1.47
-1.27
-3.11
-4.57
-6.32
-9.09
-13.37
-19.35
-26.92
-35.55
-44.33
-51.90
-56.78
-57.63
-53.74
-45.29
-33.36
-19.67
-6.05
5.98
15.53
22.40
26.90
29.58
30.98
31.48
31.33
30.77
30.16
30.03
30.98
33.47
37.59
42.93
48.72
54.03
58.10
60.49
61.10
59.99
57.21
52.79
46.79
39.39
30.86
21.49
11.42
0.81
-10.01
-20.22
-28.56
-33.56
-34.17
-30.19
-22.43
-12.38
-1.63
8.57
17.45
24.53
29.32
31.20
29.72
24.96
17.79
9.71
2.35
-3.11
-6.34
-7.81
-8.44
-9.10
-10.25
-11.92
-13.88
-15.89
-17.90
-20.02
-22.43
-25.25
-28.42
-31.79
-35.31
-39.12
-43.54
-48.82
-54.76
-60.47
-64.42
-64.86
-60.59
-51.50
-38.76
-24.37
-10.49
1.38
10.74
17.87
23.38
27.69
30.82
32.56
32.80
31.72
29.86
27.89
26.34
25.44
25.06
24.90
24.64
24.02
22.91
21.28
19.21
16.84
14.34
11.87
9.42
6.91
4.12
0.81
-3.22
-8.20
-14.22
-21.20
-28.62
-35.45
-40.29
-41.76
-38.98
-31.97
-21.76
-10.00
1.56
11.62
19.54
25.28
29.13
31.40
32.38
32.26
31.24
29.59
27.55
25.35
23.15
21.02
18.98
17.03
15.22
13.53
11.97
10.44
8.81
6.93
4.76
2.33
-0.25
-2.83
-5.39
-7.96
-10.63
-13.51
-16.68
-20.21
-24.26
-28.88
-33.83
-38.40
-41.44
-41.68
-38.28
-31.26
-21.62
-10.96
-0.94
7.37
13.63
18.16
21.43
23.81
25.33
25.84
25.19
23.38
20.62
17.22
13.54
9.93
6.71
4.12
2.25
0.95
-0.10
-1.34
-3.09
-5.48
-8.34
-11.36
-14.29
-17.00
-19.60
-22.31
-25.34
-28.82
-32.73
-36.87
-40.82
-43.86
-45.04
-43.47
-38.51
-30.26
-19.52
-7.63
3.91
13.92
21.73
27.21
30.53
31.98
31.78
30.15
27.35
23.79
19.92
16.18
12.90
10.26
8.32
6.95
5.94
4.96
3.66
1.79
-0.64
-3.37
-6.01
-8.26
-10.12
-11.88
-14.04
-17.08
-21.27
-26.61
-32.73
-38.91
-44.12
-47.15
-46.89
-42.72
-34.77
-23.98
-11.83
0.11
10.51
18.63
24.18
27.25
28.14
27.30
25.25
22.55
19.66
16.90
14.40
12.17
10.22
8.53
7.06
5.67
4.13
2.24
-0.08
-2.66
-5.22
-7.47
-9.30
-10.84
-12.47
-14.64
-17.75
-21.98
-27.22
-33.06
-38.76
-43.34
-45.73
-44.96
-40.51
-32.44
-21.50
-8.96
3.66
15.03
24.20
30.74
34.64
36.14
35.58
33.33
29.83
25.59
21.13
16.95
13.41
10.70
8.82
7.60
6.73
5.84
4.58
2.76
0.31
-2.60
-5.67
-8.62
-11.33
-13.89
-16.57
-19.72
-23.70
-28.71
-34.62
-40.85
-46.39
-49.89
-50.08
-46.18
-38.17
-26.92
-13.89
-0.69
11.26
21.04
28.21
32.72
34.76
34.70
33.00
30.24
26.97
23.66
20.61
17.98
15.80
14.01
12.45
10.93
9.24
7.23
4.83
2.15
-0.61
-3.30
-5.85
-8.35
-10.94
-13.87
-17.30
-21.44
-26.44
-32.31
-38.71
-44.84
-49.35
-50.71
-47.78
-40.20
-28.78
-15.18
-1.38
10.98
21.02
28.56
33.87
37.21
38.65
38.14
35.77
31.94
27.41
23.05
19.47
16.89
15.05
13.48
11.71
9.54
7.08
4.63
2.49
0.77
-0.71
-2.35
-4.55
-7.59
-11.48
-16.04
-21.05
-26.40
-32.06
-37.87
-43.28
-47.30
-48.62
-46.10
-39.29
-28.68
-15.65
-2.03
10.47
20.66
27.98
32.48
34.46
34.39
32.71
29.88
26.40
22.74
19.35
16.54
14.45
13.03
12.01
11.02
9.67
7.78
5.34
2.63
-0.02
-2.38
-4.47
-6.47
-8.71
-11.45
-14.84
-18.98
-23.90
-29.51
-35.51
-41.15
-45.28
-46.55
-43.83
-36.70
-25.68
-12.08
2.37
16.04
27.82
37.18
43.98
48.20
49.90
49.25
46.65
42.90
39.03
36.04
34.59
34.68
35.68
36.58
36.42
34.72
31.61
27.73
23.84
20.48
17.69
15.11
12.21
8.64
4.46
0.10
-3.81
-6.58
-7.62
-6.44
-2.72
3.51
11.73
20.93
29.76
36.87
41.27
42.59
40.91
36.60
29.97
21.18
10.39
-2.11
-15.62
-29.04
-41.21
-51.20
-58.60
-63.56
-66.59
-68.29
-69.03
-68.96
-68.09
-66.52
-64.52
-62.51
-60.90
-59.93
-59.62
-59.90
-60.75
-62.27
-64.63
-67.77
-71.03
-73.06
-72.13
-66.68
-56.00
-40.67
-22.42
-3.54
13.84
28.33
39.39
47.00
51.37
52.65
51.00
46.81
40.88
34.32
28.32
23.80
21.09
19.94
19.69
19.53
18.79
17.11
14.46
11.12
7.42
3.73
0.25
-2.97
-6.05
-9.30
-13.15
-18.01
-24.02
-30.85
-37.48
-42.39
-43.96
-41.04
-33.36
-21.74
-7.72
6.85
20.36
31.75
40.53
46.65
50.22
51.48
50.67
48.13
44.35
39.96
35.64
31.96
29.28
27.61
26.63
25.82
24.64
22.75
20.10
16.95
13.70
10.69
8.01
5.45
2.55
-1.24
-6.34
-12.84
-20.49
-28.63
-36.26
-42.12
-44.89
-43.49
-37.42
-27.08
-13.79
0.55
13.98
25.08
33.26
38.62
41.59
42.55
41.61
38.79
34.31
28.72
22.88
17.68
13.71
11.09
9.48
8.28
6.92
5.04
2.63
-0.13
-2.96
-5.67
-8.25
-10.86
-13.75
-17.18
-21.36
-26.41
-32.28
-38.63
-44.70
-49.32
-51.10
-48.86
-42.02
-31.03
-17.25
-2.62
10.98
22.24
30.65
36.31
39.56
40.62
39.58
36.55
31.95
26.61
21.53
17.51
14.82
13.14
11.79
10.19
8.13
5.84
3.72
2.00
0.60
-0.80
-2.61
-5.08
-8.31
-12.35
-17.27
-23.15
-29.79
-36.49
-41.96
-44.64
-43.20
-37.17
-27.11
-14.54
-1.28
11.08
21.55
29.71
35.49
38.88
39.80
38.30
34.69
29.68
24.17
19.03
14.80
11.62
9.27
7.44
5.85
4.41
3.15
2.14
1.40
0.77
-0.04
-1.43
-3.76
-7.37
-12.37
-18.73
-26.11
-33.83
-40.81
-45.64
-46.93
-43.68
-35.70
-23.81
-9.67
4.71
17.56
27.73
34.89
39.24
41.23
41.21
39.44
36.11
31.58
26.43
21.40
17.16
14.10
12.18
10.99
9.96
8.56
6.50
3.82
0.72
-2.52
-5.78
-9.14
-12.83
-17.15
-22.33
-28.46
-35.41
-42.73
-49.57
-54.73
-56.81
-54.59
-47.52
-36.03
-21.54
-6.11
8.21
19.95
28.52
34.14
37.43
38.97
39.08
37.84
35.37
31.99
28.24
24.76
22.04
20.36
19.61
19.51
19.71
19.98
20.23
20.53
20.95
21.42
21.75
21.54
20.41
18.04
14.31
9.36
3.54
-2.61
-8.33
-12.82
-15.27
-15.14
-12.26
-6.97
-0.03
7.63
15.07
21.49
26.24
28.80
28.86
26.39
21.81
15.93
9.76
4.17
-0.37
-3.86
-6.64
-9.14
-11.65
-14.28
-17.01
-19.78
-22.51
-25.13
-27.56
-29.78
-31.91
-34.27
-37.33
-41.48
-46.75
-52.54
-57.66
-60.52
-59.75
-54.64
-45.44
-33.33
-19.91
-6.78
4.94
14.68
22.29
27.69
30.71
31.11
28.85
24.33
18.47
12.51
7.60
4.39
2.79
2.11
1.44
0.08
-2.11
-4.74
-7.12
-8.68
-9.28
-9.32
-9.57
-10.88
-13.84
-18.59
-24.73
-31.40
-37.37
-41.32
-42.05
-38.85
-31.60
-20.97
-8.16
5.30
18.06
29.07
37.76
43.84
47.18
47.77
45.74
41.55
35.97
30.00
24.58
20.29
17.22
15.05
13.32
11.59
9.63
7.37
4.80
1.97
-1.04
-4.06
-6.95
-9.70
-12.54
-15.89
-20.19
-25.54
-31.51
-37.01
-40.57
-40.84
-37.03
-29.31
-18.66
-6.62
5.30
15.93
24.65
31.22
35.62
37.77
37.63
35.27
31.10
25.90
20.63
16.18
13.08
11.34
10.52
9.92
8.88
7.03
4.30
0.99
-2.50
-5.77
-8.66
-11.24
-13.76
-16.57
-19.97
-24.13
-28.99
-34.04
-38.30
-40.46
-39.25
-33.90
-24.58
-12.44
0.73
13.09
23.28
30.69
35.34
37.60
37.81
36.26
33.21
29.11
24.62
20.52
17.45
15.67
14.97
14.79
14.40
13.22
11.02
7.94
4.43
0.99
-1.96
-4.29
-6.23
-8.25
-11.03
-15.19
-21.02
-28.31
-36.09
-42.87
-46.96
-46.93
-42.20
-33.16
-21.11
-7.84
4.89
15.73
23.98
29.50
32.43
33.09
31.71
28.57
24.01
18.63
13.16
8.28
4.49
1.77
-0.26
-2.25
-4.81
-8.31
-12.77
-17.92
-23.39
-28.80
-33.88
-38.44
-42.50
-46.21
-50.02
-54.52
-60.28
-67.47
-75.57
-83.33
-89.01
-90.99
-88.39
-81.45
-71.51
-60.55
-50.60
-43.10
-38.57
-36.50
-35.44
-33.41
-28.44
-19.21
-5.56
11.41
29.75
47.33
62.57
74.83
84.33
91.70
97.52
102.12
105.56
107.93
109.42
110.31
110.81
110.80
109.87
107.35
102.53
94.94
84.47
71.54
57.04
42.29
28.87
18.31
11.80
9.80
11.99
17.35
24.44
31.86
38.48
43.53
46.54
47.21
45.46
41.43
35.54
28.45
20.90
13.50
6.62
0.41
-5.07
-9.81
-13.79
-17.07
-19.84
-22.41
-25.00
-27.64
-30.07
-31.98
-33.14
-33.65
-33.92
-34.54
-36.09
-38.90
-42.96
-47.90
-52.97
-57.05
-58.90
-57.38
-51.90
-42.78
-31.22
-19.02
-7.93
0.94
7.29
11.54
14.28
15.87
16.35
15.59
13.58
10.64
7.40
4.45
2.19
0.63
-0.50
-1.51
-2.66
-3.97
-5.34
-6.61
-7.67
-8.53
-9.26
-10.03
-10.99
-12.30
-14.11
-16.58
-19.83
-23.87
-28.43
-32.89
-36.27
-37.45
-35.49
-30.05
-21.57
-11.23
-0.54
9.11
16.84
22.37
25.86
27.58
27.68
26.19
23.16
18.99
14.44
10.52
8.11
7.66
9.00
11.54
14.60
17.63
20.34
22.62
24.23
24.77
23.68
20.49
15.04
7.60
-1.26
-10.85
-20.57
-29.88
-38.29
-45.15
-49.63
-50.95
-48.60
-42.65
-33.85
-23.46
-12.91
-3.44
4.13
9.48
12.61
13.73
13.10
11.11
8.23
5.09
2.29
0.25
-0.92
-1.54
-2.07
-2.98
-4.46
-6.41
-8.52
-10.47
-12.10
-13.45
-14.81
-16.51
-18.99
-22.53
-27.27
-32.99
-39.05
-44.34
-47.54
-47.43
-43.35
-35.43
-24.67
-12.56
-0.71
9.63
17.74
23.42
26.79
28.04
27.39
25.06
21.39
16.87
12.06
7.48
3.51
0.27
-2.30
-4.38
-6.15
-7.73
-9.13
-10.24
-10.99
-11.42
-11.78
-12.51
-14.16
-17.23
-21.96
-28.20
-35.32
-42.20
-47.45
-49.66
-47.82
-41.60
-31.57
-19.03
-5.66
6.93
17.64
26.00
32.04
36.02
38.14
38.52
37.25
34.55
30.91
26.99
23.47
20.84
19.26
18.56
18.34
18.17
17.66
16.55
14.68
11.94
8.23
3.43
-2.56
-9.81
-18.29
-27.77
-37.72
-47.27
-55.28
-60.54
-62.07
-59.39
-52.75
-43.02
-31.52
-19.77
-9.17
-0.73
5.00
8.12
9.27
9.52
10.04
11.80
15.25
20.18
25.87
31.40
35.90
38.92
40.39
40.59
39.88
38.54
36.61
33.90
30.10
24.92
18.22
10.02
0.54
-9.87
-20.71
-31.29
-40.65
-47.63
-51.05
-49.96
-44.07
-33.90
-20.79
-6.55
6.97
18.37
26.93
32.60
35.72
36.74
36.04
33.96
30.89
27.38
24.03
21.29
19.22
17.41
15.29
12.45
8.87
4.99
1.43
-1.35
-3.28
-4.73
-6.32
-8.66
-12.19
-17.08
-23.13
-29.74
-35.87
-40.23
-41.51
-38.85
-32.11
-21.98
-9.75
3.06
15.12
25.45
33.46
38.85
41.46
41.30
38.61
33.90
27.95
21.68
15.86
10.95
7.02
3.82
0.93
-1.98
-5.07
-8.31
-11.55
-14.62
-17.44
-20.02
-22.50
-25.11
-28.16
-31.93
-36.45
-41.30
-45.59
-48.05
-47.41
-42.91
-34.62
-23.51
-11.10
1.00
11.59
20.04
26.25
30.38
32.59
33.01
31.73
28.99
25.21
20.99
16.94
13.45
10.64
8.31
6.17
3.97
1.72
-0.35
-1.98
-3.05
-3.80
-4.77
-6.61
-9.73
-14.14
-19.35
-24.46
-28.43
-30.18
-28.97
-24.42
-16.71
-6.56
4.95
16.58
27.19
35.90
42.14
45.66
46.45
44.76
41.06
36.02
30.41
24.93
20.15
16.37
13.68
11.90
10.74
9.86
8.93
7.79
6.44
4.93
3.31
1.43
-1.04
-4.43
-8.96
-14.43
-20.26
-25.49
-29.03
-29.90
-27.49
-21.71
-13.08
-2.57
8.51
18.89
27.53
33.84
37.59
38.85
37.85
34.91
30.49
25.20
19.79
14.98
11.27
8.76
7.19
6.02
4.74
3.01
0.77
-1.79
-4.42
-6.95
-9.42
-12.05
-15.26
-19.39
-24.52
-30.25
-35.76
-39.88
-41.52
-39.95
-35.01
-27.18
-17.36
-6.69
3.74
13.01
20.50
25.84
28.92
29.88
29.02
26.82
23.89
20.80
18.02
15.77
14.00
12.49
10.97
9.31
7.54
5.86
4.45
3.41
2.62
1.76
0.41
-1.86
-5.36
-10.12
-15.75
-21.40
-25.87
-27.91
-26.60
-21.66
-13.61
-3.56
7.10
17.03
25.21
31.04
34.32
35.14
33.83
30.87
26.78
22.07
17.15
12.37
8.01
4.26
1.24
-1.12
-3.01
-4.72
-6.43
-8.19
-9.93
-11.55
-13.17
-15.12
-17.88
-21.79
-26.80
-32.25
-37.04
-39.84
-39.57
-35.81
-28.85
-19.68
-9.53
0.57
10.12
18.99
27.19
34.51
40.32
43.88
44.62
42.60
38.56
33.66
28.97
25.10
21.98
19.17
16.16
12.71
8.96
5.24
1.88
-1.06
-3.79
-6.72
-10.30
-14.83
-20.37
-26.62
-32.91
-38.29
-41.66
-42.08
-39.08
-32.87
-24.29
-14.52
-4.73
4.23
11.88
17.96
22.29
24.73
25.21
23.92
21.34
18.14
14.94
12.15
9.92
8.20
6.82
5.53
4.10
2.36
0.29
-1.94
-4.02
-5.65
-6.73
-7.52
-8.50
-10.20
-12.95
-16.73
-21.13
-25.44
-28.71
-30.00
-28.52
-23.93
-16.57
-7.41
2.14
10.73
17.47
22.15
25.05
26.62
27.16
26.67
25.03
22.24
18.66
14.95
11.87
9.92
9.18
9.18
9.29
8.93
7.89
6.42
4.96
3.89
3.24
2.70
1.76
0.09
-2.31
-5.13
-8.00
-10.75
-13.45
-16.27
-19.10
-21.44
-22.40
-21.11
-17.19
-10.99
-3.53
3.94
10.35
15.15
18.29
20.00
20.53
20.03
18.53
16.13
13.09
9.86
6.91
4.52
2.77
1.46
0.30
-0.92
-2.37
-4.04
-5.88
-7.76
-9.54
-11.09
-12.36
-13.37
-14.25
-15.19
-16.31
-17.62
-19.11
-20.76
-22.69
-24.95
-27.40
-29.46
-30.22
-28.70
-24.41
-17.56
-9.11
-0.42
7.28
13.31
17.49
20.06
21.30
21.37
20.38
18.47
15.99
13.42
11.26
9.78
9.01
8.75
8.69
8.58
8.24
7.61
6.69
5.58
4.37
3.20
2.07
0.95
-0.28
-1.74
-3.44
-5.38
-7.50
-9.82
-12.50
-15.67
-19.31
-23.02
-26.04
-27.35
-26.09
-21.92
-15.21
-6.98
1.40
8.75
14.33
17.96
19.84
20.33
19.64
17.92
15.40
12.53
9.91
8.12
7.36
7.45
7.88
8.11
7.86
7.18
6.29
5.45
4.77
4.19
3.54
2.63
1.33
-0.42
-2.64
-5.24
-8.10
-11.07
-14.08
-17.21
-20.57
-24.23
-27.88
-30.91
-32.50
-31.92
-28.94
-23.86
-17.48
-10.74
-4.46
0.93
5.24
8.41
10.34
10.89
10.05
8.03
5.37
2.72
0.66
-0.55
-0.98
-0.92
